#List of files for average calculation
#C:\D+_tests\Symmetry\GPU\WH\Single_PDB_Implicit_No_Charges_With_Hydration_VEGAS\Single_PDB_Implicit_No_Charges_With_Hydration_VEGAS_1
#C:\D+_tests\Symmetry\GPU\WH\Single_PDB_Implicit_No_Charges_With_Hydration_VEGAS\Single_PDB_Implicit_No_Charges_With_Hydration_VEGAS_2
#C:\D+_tests\Symmetry\GPU\WH\Single_PDB_Implicit_No_Charges_With_Hydration_VEGAS\Single_PDB_Implicit_No_Charges_With_Hydration_VEGAS_3
#C:\D+_tests\Symmetry\GPU\WH\Single_PDB_Implicit_No_Charges_With_Hydration_VEGAS\Single_PDB_Implicit_No_Charges_With_Hydration_VEGAS_4
#C:\D+_tests\Symmetry\GPU\WH\Single_PDB_Implicit_No_Charges_With_Hydration_VEGAS\Single_PDB_Implicit_No_Charges_With_Hydration_VEGAS_5
#C:\D+_tests\Symmetry\GPU\WH\Single_PDB_Implicit_No_Charges_With_Hydration_VEGAS\Single_PDB_Implicit_No_Charges_With_Hydration_VEGAS_6
#C:\D+_tests\Symmetry\GPU\WH\Single_PDB_Implicit_No_Charges_With_Hydration_VEGAS\Single_PDB_Implicit_No_Charges_With_Hydration_VEGAS_7
#C:\D+_tests\Symmetry\GPU\WH\Single_PDB_Implicit_No_Charges_With_Hydration_VEGAS\Single_PDB_Implicit_No_Charges_With_Hydration_VEGAS_8
#C:\D+_tests\Symmetry\GPU\WH\Single_PDB_Implicit_No_Charges_With_Hydration_VEGAS\Single_PDB_Implicit_No_Charges_With_Hydration_VEGAS_9
#C:\D+_tests\Symmetry\GPU\WH\Single_PDB_Implicit_No_Charges_With_Hydration_VEGAS\Single_PDB_Implicit_No_Charges_With_Hydration_VEGAS_10
#Average Chi square (Sigma units): 1.7044671585847
#Sigma Chi square: 0.37056016347102
#Calculation was done on GPU
q [nm^-1]	Intensity [A.U]	Sigma [A.U]
0.000000	52332421357.171669	8.4346130125818895e-006
0.006250	52353623268.545319	367459.20957200072
0.012500	52259772454.657982	477927.72756784706
0.018750	52054215441.490555	128038.8309164118
0.025000	51739347867.807327	703471.25243008381
0.031250	51319768423.692123	239843.04561846438
0.037500	50797896871.680099	2369232.8572033928
0.043750	50180368825.176872	1853385.8997428347
0.050000	49467964825.854637	7646304.9359740382
0.056250	48674355278.840096	5560304.3783397023
0.062500	47798730403.451782	710952.93655626918
0.068750	46890579991.311844	1301812.52648058
0.075000	45992230191.87326	1523991.8759099967
0.081250	45015094121.549324	1772510.2914607981
0.087500	43963096243.194138	8551294.8597589731
0.093750	42858297695.904076	6282851.6875353251
0.100000	41699792792.55629	5838118.0115448646
0.106250	40495323612.217094	9247857.532777803
0.112500	39258860625.843369	3095408.2718337299
0.118750	37993640363.563782	4226978.7134718634
0.125000	36707002766.192909	3993104.0338896229
0.131250	35409588274.859634	4126583.9668868468
0.137500	34146672618.098194	2375041.7132028057
0.143750	32882746607.271599	5887426.4117948692
0.150000	31605500340.69352	10541216.117072385
0.156250	30329980031.513714	2580871.476636617
0.162500	29050304869.105083	8111439.4926461671
0.168750	27785775815.803627	2569107.2958952487
0.175000	26536189142.190323	7982438.813681568
0.181250	25311512898.881947	6528616.8402460711
0.187500	24112210734.359962	7913210.4478612626
0.193750	22949740456.588646	6166935.6268816916
0.200000	21824868869.13459	2662816.9870868875
0.206250	20751427469.185898	2678617.0798812257
0.212500	19704501772.808186	7721489.5426837271
0.218750	18694947192.117397	4168404.2273454797
0.225000	17719057088.004051	4823661.322297602
0.231250	16780015066.62204	4106664.5683621299
0.237500	15882202832.405811	2783766.0781019125
0.243750	15022169721.562237	4190747.577894758
0.250000	14205828948.46224	2698911.5652132751
0.256250	13428862012.3979	3441931.2981618168
0.262500	12695740883.493246	3006048.0456020916
0.268750	11999999716.008774	3664151.5871502371
0.275000	11342102105.928446	3296825.6347628892
0.281250	10718802257.025312	3331627.2087020278
0.287500	10128531812.069492	3301823.3205722612
0.293750	9570701657.5582237	3031576.5740298866
0.300000	9044762687.6701965	3099944.8304270073
0.306250	8547777546.1567097	2975350.6957097752
0.312500	8079788537.7464237	2906482.8576217503
0.318750	7638846739.8831501	2872405.3976394976
0.325000	7223376768.0109577	2798977.6908251382
0.331250	6831675862.2364225	2757285.4445874454
0.337500	6463457048.8061533	4113727.6874578996
0.343750	6113454578.246376	4573268.8633025093
0.350000	5782214479.6121464	3994778.7522087959
0.356250	5467836506.9698849	3665008.3369190586
0.362500	5168397234.1625118	4139937.7983093201
0.368750	4884283319.4245796	3668853.281396321
0.375000	4613499605.4174557	3579201.5705607901
0.381250	4355368094.7600889	3560807.5001908559
0.387500	4109740458.9179792	3458711.1600348637
0.393750	3874677474.4313669	3267388.6939130882
0.400000	3651177002.585443	3177756.9440120645
0.406250	3438899852.1638565	2390557.6312402929
0.412500	3234995210.3866897	2334390.8744245479
0.418750	3039569605.4964151	1917697.3920595665
0.425000	2851593192.7981968	1990164.0195612453
0.431250	2671452462.479435	1974051.2217593093
0.437500	2499049858.5922637	1579427.4728654623
0.443750	2334310373.0582151	1362272.2581206635
0.450000	2177449020.3408375	1405036.571869384
0.456250	2028392648.7465477	1207114.6691370266
0.462500	1887058353.4665871	1109239.1313908477
0.468750	1754178136.0327582	1256571.5251517848
0.475000	1628271035.2413869	1309247.9326461556
0.481250	1508820895.6381307	1185544.1960188972
0.487500	1395905286.2690253	1323647.7994258264
0.493750	1289399274.4101677	1153549.8760827249
0.500000	1189605831.7836275	1531161.5275784049
0.506250	1096694187.2089772	853914.13247814495
0.512500	1010373689.2982635	1074149.9279200716
0.518750	930436787.82389331	1099673.1925007198
0.525000	857115958.0300771	910971.12196882884
0.531250	789905825.83472717	823066.91091358417
0.537500	728477296.49277914	734838.13206528639
0.543750	672283370.82558155	666184.97933768132
0.550000	621093297.75544858	626230.39304691891
0.556250	574762571.50050235	573789.74535727559
0.562500	532930593.97106087	526531.84448131663
0.568750	495439848.02772063	535569.15177189745
0.575000	461860897.53964269	417714.0152006438
0.581250	431943275.32501829	411624.1994478812
0.587500	405399493.02929342	436289.97466230311
0.593750	381801638.75268084	453382.43807422667
0.600000	360806086.2834897	436804.8501819541
0.606250	342913204.47468448	613499.50691049336
0.612500	326802840.87715405	569145.94378759374
0.618750	312453469.30508673	564688.06765195483
0.625000	299513722.69064176	534681.40288309252
0.631250	287797515.87853861	518551.33098063862
0.637500	277091696.99400389	499363.94973125996
0.643750	267192702.84949869	485190.94227298209
0.650000	257947996.81890351	471823.49304999562
0.656250	249174341.76541096	453006.53792603675
0.662500	240705890.97491151	441318.81447421544
0.668750	232949950.6414811	283876.93689005729
0.675000	226119242.26785073	264685.53379544313
0.681250	219153756.07452577	291033.53157633846
0.687500	212100604.01758084	239385.50071180769
0.693750	204878011.25618201	197644.59026279429
0.700000	197533553.5444853	250596.01477429023
0.706250	190266346.20028931	220827.51840104526
0.712500	182876634.77409697	250466.513749248
0.718750	175578863.7847043	229425.03919535756
0.725000	168344166.76451403	229966.60517383998
0.731250	161233088.42847008	223985.13673359732
0.737500	154880108.16232753	201970.63322245819
0.743750	148935794.54745629	204843.41568888308
0.750000	142994673.47299135	196591.11523359743
0.756250	137113972.81915513	209118.74283275183
0.762500	131395311.88259172	173931.37376895422
0.768750	125884429.70140922	145161.2211170248
0.775000	120680900.82704315	168843.1164617021
0.781250	115808041.23115638	139326.80597669428
0.787500	111274266.90043378	140631.95666183266
0.793750	107095115.62383923	140668.35030529799
0.800000	103314272.15444168	126238.3279623523
0.806250	100445130.81105439	149939.70085153583
0.812500	97793838.489749447	139985.8767647635
0.818750	95366050.554764912	123968.98812085623
0.825000	93132574.129050344	128824.18202920737
0.831250	91110443.476711437	120981.34832479738
0.837500	89274778.158687204	121413.7076453886
0.843750	87624966.195250273	116846.76063805699
0.850000	86113454.501772046	116094.89038727699
0.856250	84710165.643077537	120618.14793751658
0.862500	83354469.829022318	121038.2256902459
0.868750	82222326.165635198	118216.46494607341
0.875000	81393442.108193025	112456.44593506052
0.881250	80475469.68068549	99144.105397468302
0.887500	79455655.044339433	97157.57091496783
0.893750	78328395.057955623	95292.142362597107
0.900000	77079109.382199973	87608.559683178144
0.906250	75716862.483069927	83983.658166474837
0.912500	74232232.068112016	80592.087380199111
0.918750	72627617.419025749	79061.71913943674
0.925000	70901896.830924973	78471.217685282914
0.931250	69056179.060164675	77210.58334280453
0.937500	67344045.368878409	158766.30762250998
0.943750	65663195.723640993	152477.30405887429
0.950000	63818742.197047099	145608.29038457497
0.956250	61867420.901508927	141825.6090791235
0.962500	59829415.204876319	136244.01993481829
0.968750	57748770.683958605	129585.35487484765
0.975000	55660323.703251205	123625.399843117
0.981250	53593405.567451119	110092.39765524764
0.987500	51591020.588364691	112606.35193180454
0.993750	49666754.594567791	107416.08706746643
1.000000	47844901.589686438	102708.51876380238
1.006250	46374795.592358187	45304.819093672522
1.012500	44944544.013239764	42482.584654961829
1.018750	43605306.120374918	48627.294311700534
1.025000	42391728.484371252	46942.700119664049
1.031250	41315496.053627416	44481.509822055945
1.037500	40389211.784721121	43991.674087162486
1.043750	39623071.339280248	43383.203257913912
1.050000	39017120.526130296	42522.293642737503
1.056250	38560701.582433634	43561.586566961931
1.062500	38253190.91279389	44982.568456249821
1.068750	38129301.592216507	35498.009007885936
1.075000	38206811.106199943	36707.307107415894
1.081250	38374931.731987998	39753.204056635936
1.087500	38622377.944119729	44041.257918461524
1.093750	38934934.75592196	48987.076133873154
1.100000	39295605.338187374	54132.327997542605
1.106250	39684835.207877807	59146.167870534984
1.112500	40080821.832494348	63793.601675696496
1.118750	40459950.964856282	67906.613392919171
1.125000	40797247.837502107	71363.476011677034
1.131250	41066994.381431751	74076.452433778832
1.137500	41433360.299159996	70493.527304899253
1.143750	41743420.470508911	70539.634731345184
1.150000	41947280.841919333	70559.460565240879
1.156250	42037700.67857562	70584.26221982234
1.162500	42009676.069417901	70775.967042316508
1.168750	41858740.425298549	70745.399374990433
1.175000	41583910.082226433	70909.392107131192
1.181250	41184479.943413563	71131.086905855322
1.187500	40661507.289388359	71399.334313351079
1.193750	40017425.020962358	71693.698157798382
1.200000	39256009.533935443	71986.060522482236
1.206250	38534470.923595473	111686.95877834524
1.212500	37744526.071557127	106276.80225569598
1.218750	36842547.880795226	100807.68388522667
1.225000	35845544.158653572	95680.029387961098
1.231250	34776908.101237282	90005.192887665529
1.237500	33655451.144724108	85382.094643374759
1.243750	32495086.936155427	80868.357946349643
1.250000	31313221.948357504	77910.669762972713
1.256250	30129358.538044333	72959.717641210853
1.262500	28952560.189594638	69512.031488815628
1.268750	27843742.769332789	82416.716968663794
1.275000	26810551.9277086	79315.995866442434
1.281250	25790073.280831244	78230.120469134461
1.287500	24795756.133573949	75684.062009660571
1.293750	23841836.085569102	72996.469451291967
1.300000	22939011.655020189	70296.664692531383
1.306250	22094991.719303869	67715.521380116144
1.312500	21314483.091098212	65378.162044698656
1.318750	20599088.721924834	63393.148905529539
1.325000	19947372.734859437	61839.75788211701
1.331250	19355001.599527907	60755.434803179538
1.337500	18865731.509855993	21849.604615546006
1.343750	18439619.198443614	21119.644979236233
1.350000	18058126.753080066	21454.996075095001
1.356250	17719475.215094976	23021.833670481916
1.362500	17418003.008126728	24987.533225887037
1.368750	17150258.801312886	27737.88493896876
1.375000	16909329.153926186	30770.193840551936
1.381250	16686727.02738069	34078.203089698363
1.387500	16474451.776900878	37335.775732441049
1.393750	16262704.068156978	40486.723949525556
1.400000	16041352.709513729	43435.159291484102
1.406250	15870105.516563553	41380.500286997551
1.412500	15695408.428041	40098.908172812837
1.418750	15499967.91145576	39084.807648780297
1.425000	15282322.013100941	37116.411549592594
1.431250	15040286.611362854	36106.561141190497
1.437500	14774324.829185748	34273.191744612508
1.443750	14483823.799708521	32636.820671357749
1.450000	14168366.653349694	30935.905673350997
1.456250	13827912.198979471	29178.845909701078
1.462500	13462585.294526374	27376.520354484321
1.468750	13120679.382293187	27040.645188815837
1.475000	12780027.124224637	25165.025834629054
1.481250	12408563.827533994	23478.168510389227
1.487500	12014266.8863726	21641.87189915061
1.493750	11603361.220000083	20118.57954287919
1.500000	11182932.168681884	18988.72003736495
1.506250	10759845.554738726	17893.922285264933
1.512500	10339148.975059133	16564.424107513871
1.518750	9928006.2937187348	17144.05411658817
1.525000	9529216.7430099174	17367.698565640232
1.531250	9147086.1056282893	17944.469572229809
1.537500	8823699.7814378813	14992.55625931167
1.543750	8514561.113727238	15020.009772084803
1.550000	8218491.25366644	15000.029660022652
1.556250	7940502.278469434	14821.96160735901
1.562500	7685397.8611330781	14861.787735357777
1.568750	7455933.5800259393	14768.089588396233
1.575000	7254505.4415813657	14675.557828898744
1.581250	7082264.8253196031	14597.636029029238
1.587500	6939291.6199474055	14547.300271596707
1.593750	6824655.9436584096	14536.343236742932
1.600000	6736478.5662939679	14574.583381815204
1.606250	6681376.3053920064	12329.430490861305
1.612500	6664221.2069241237	12670.982526388181
1.618750	6665368.8899045633	13078.88699412216
1.625000	6683473.6171366964	13188.057416268621
1.631250	6717631.8942810567	13970.546176631815
1.637500	6765168.1592542287	14421.920413499325
1.643750	6824043.6062720595	14850.750419400467
1.650000	6891540.8875283794	15190.304735995482
1.656250	6964816.6803832073	15628.357566995644
1.662500	7040660.2922248496	15970.979277365286
1.668750	7124937.3433745382	13865.448342825819
1.675000	7232943.26606414	14238.423568690048
1.681250	7337711.003692545	14480.400962871265
1.687500	7437234.7899877969	14899.926226427589
1.693750	7530983.572534834	15380.373032607518
1.700000	7618233.040362197	15910.858249203142
1.706250	7698352.8699742723	16480.066881231229
1.712500	7770785.82488319	17076.282596349491
1.718750	7835020.1247527394	17687.318713059914
1.725000	7890586.187693961	18300.604047545832
1.731250	7937054.0505051743	18903.281537573021
1.737500	7984594.4128589705	13182.200094973425
1.743750	8048799.8485515099	13288.879716148504
1.750000	8104013.6757378932	13436.311994930042
1.756250	8151694.8787157359	13637.571892954802
1.762500	8193238.4868954886	13907.043082684344
1.768750	8229902.1793221412	14260.866256505255
1.775000	8262750.7905046362	14716.634096386932
1.781250	8292608.652694732	15291.951135659881
1.787500	8320033.1811643671	16002.068689571888
1.793750	8345299.6522465497	16856.987423228475
1.800000	8368400.7142633004	17858.767634888485
1.806250	8429476.4762425274	10440.397451038896
1.812500	8479378.6974932551	10574.143990134569
1.818750	8528743.5899927281	10806.565742076267
1.825000	8578616.7691488471	11096.757066314323
1.831250	8629527.5295369271	11626.24581759431
1.837500	8681917.0588053055	12232.175898642854
1.843750	8735672.7917444371	12969.178501181394
1.850000	8790333.0103470292	13851.231601032101
1.856250	8845108.067339398	14663.544498591224
1.862500	8899052.0554411672	15829.104955081059
1.868750	8954822.9786724094	20070.483262567457
1.875000	9035734.6964303069	20232.803687444957
1.881250	9115502.3328096848	20443.080825753328
1.887500	9194501.0695677213	20594.889126487171
1.893750	9272649.3083735965	20793.952230599105
1.900000	9349799.3156769946	21003.140244574177
1.906250	9425524.502687607	21220.552461272731
1.912500	9499168.6575271301	21444.399836058161
1.918750	9569855.9324203357	21673.36097273292
1.925000	9636509.592370715	21906.855630300728
1.931250	9697885.1285122298	22145.227383911882
1.937500	9781920.2119908854	27053.233297086947
1.943750	9868145.4948528167	28063.426413902449
1.950000	9950310.5531484131	29078.987468625164
1.956250	10028998.220420264	30104.255779527528
1.962500	10104602.952007772	31143.906128164916
1.968750	10177292.780098531	32202.144803737428
1.975000	10246994.721774686	33282.280633983093
1.981250	10313381.404454192	34386.38437989309
1.987500	10375865.835697833	35515.10358324254
1.993750	10433611.006252434	36667.740595672614
2.000000	10485535.793650065	37842.2287026208
2.006250	10544593.752170781	19819.607636258712
2.012500	10621875.961722692	19440.58958982546
2.018750	10694981.306388851	19199.711924088573
2.025000	10764488.68551724	19108.936139210582
2.031250	10830316.614060108	19187.728775336123
2.037500	10892769.548386125	19512.223473689075
2.043750	10951098.595246257	19994.498081563968
2.050000	11004575.947061971	20664.0561585006
2.056250	11052080.106334202	21510.617793242014
2.062500	11092173.64131571	22519.404669597257
2.068750	11168588.707841415	44660.839266671261
2.075000	11232396.838813737	44339.99559680729
2.081250	11287795.37853154	43961.241227596372
2.087500	11334995.90183978	43536.806115916523
2.093750	11373968.538541626	43079.504620047548
2.100000	11404444.441276474	42602.400796680333
2.106250	11425906.022589389	42118.593832487393
2.112500	11437500.669397628	41788.523864074486
2.118750	11438549.176641699	41161.017494968815
2.125000	11427495.622232512	40744.481649432943
2.131250	11403081.29379498	40363.619431726729
2.137500	11407321.96406045	19059.868892825576
2.143750	11398907.604850711	19189.543728032586
2.150000	11376350.275519878	19423.868430944724
2.156250	11340297.078475788	19748.141922600033
2.162500	11291278.175126839	20144.941061405876
2.168750	11229690.275419915	20595.866533721121
2.175000	11155788.1497437	21072.475812619308
2.181250	11069697.248241868	21589.397931401949
2.187500	10971367.250367116	22100.599835291541
2.193750	10860628.035416435	22603.729482126786
2.200000	10737175.532193031	23087.865215919406
2.206250	10613009.313449824	28541.395860679786
2.212500	10503632.36168758	28696.185435504776
2.218750	10381855.082107056	28820.16433445771
2.225000	10248507.71051033	28822.018607196769
2.231250	10107135.931567753	28928.042692576622
2.237500	9956794.5572200138	28885.857767033849
2.243750	9799185.7746044509	28762.688042191909
2.250000	9635092.3813105561	28547.743586248194
2.256250	9465004.0651073121	28284.096194112833
2.262500	9289369.1752072331	27812.914800776063
2.268750	9133307.497233497	34417.46974697175
2.275000	8978992.9834750034	34094.798889428261
2.281250	8817704.6688594185	33691.148128572029
2.287500	8650958.6688708235	33320.67041310401
2.293750	8480349.3215062302	32669.330610665707
2.300000	8306801.1336742518	32067.709140965078
2.306250	8131252.7480559675	31417.674454050535
2.312500	7954328.9223170551	30728.672831966294
2.318750	7776368.4802375706	30009.825315603084
2.325000	7597473.5158656668	29298.105112192552
2.331250	7417434.3884827094	28514.686782145993
2.337500	7252827.7210682454	24788.048239207579
2.343750	7094108.200534774	25035.718094150205
2.350000	6932358.2473662253	25195.017405185288
2.356250	6768500.0332416343	25258.689167088924
2.362500	6603313.3195989504	25222.687259947415
2.368750	6437381.9568125261	25085.97701924128
2.375000	6271140.2443398014	24850.306890615848
2.381250	6104829.4209338594	24519.910548133103
2.387500	5938524.4808793245	24101.207190258465
2.393750	5772165.3317532595	23602.53216215151
2.400000	5605530.6368972622	23033.649793057186
2.406250	5460611.0952071333	11447.382549143453
2.412500	5311808.1674488364	11180.438864388334
2.418750	5161417.5966995768	10934.056495183522
2.425000	5010364.2261127448	10818.905814853826
2.431250	4859439.7331768386	10562.614299165101
2.437500	4709295.1816066327	10369.762981665279
2.443750	4560523.7223196691	10165.023299398588
2.450000	4413577.2845333256	9941.6069161569721
2.456250	4268813.1607459132	9686.6204506402191
