#List of files for average calculation
#Z:\run\2\10nmRod_SpaceFilling_hybrid_GK\10nmRod_SpaceFilling_hybrid_GK_1
#Z:\run\2\10nmRod_SpaceFilling_hybrid_GK\10nmRod_SpaceFilling_hybrid_GK_2
#Z:\run\2\10nmRod_SpaceFilling_hybrid_GK\10nmRod_SpaceFilling_hybrid_GK_3
#Z:\run\2\10nmRod_SpaceFilling_hybrid_GK\10nmRod_SpaceFilling_hybrid_GK_4
#Z:\run\2\10nmRod_SpaceFilling_hybrid_GK\10nmRod_SpaceFilling_hybrid_GK_5
#Z:\run\2\10nmRod_SpaceFilling_hybrid_GK\10nmRod_SpaceFilling_hybrid_GK_6
#Z:\run\2\10nmRod_SpaceFilling_hybrid_GK\10nmRod_SpaceFilling_hybrid_GK_7
#Z:\run\2\10nmRod_SpaceFilling_hybrid_GK\10nmRod_SpaceFilling_hybrid_GK_8
#Z:\run\2\10nmRod_SpaceFilling_hybrid_GK\10nmRod_SpaceFilling_hybrid_GK_9
#Z:\run\2\10nmRod_SpaceFilling_hybrid_GK\10nmRod_SpaceFilling_hybrid_GK_10
#Average Chi square (Sigma units): 0.52921348314606
#Sigma Chi square: 1.1702778228589e-016
#Calculation was done on GPU
q [nm^-1]	Intensity [A.U]	Sigma [A.U]
0.000000	4430465.4156490127	0
0.006250	4430057.7365425834	0
0.012500	4428618.4284390649	9.8170019070567548e-010
0.018750	4426148.8317624601	9.8170019070567548e-010
0.025000	4422651.2517879512	9.8170019070567548e-010
0.031250	4418128.9528745627	0
0.037500	4412586.1512559522	9.8170019070567548e-010
0.043750	4406028.0064081373	9.8170019070567548e-010
0.050000	4398460.6110156113	9.8170019070567548e-010
0.056250	4389890.9795599645	0
0.062500	4380327.0355576109	9.8170019070567548e-010
0.068750	4369777.5974757755	9.8170019070567548e-010
0.075000	4358252.363358262	9.8170019070567548e-010
0.081250	4345761.8941948032	0
0.087500	4332317.5960701015	9.8170019070567548e-010
0.093750	4317931.701130772	9.8170019070567548e-010
0.100000	4302617.2474104324	0
0.106250	4286595.0864954805	0
0.112500	4269671.5023752954	9.8170019070567548e-010
0.118750	4251861.99823518	9.8170019070567548e-010
0.125000	4233182.8217033511	9.8170019070567548e-010
0.131250	4213650.9422235209	9.8170019070567548e-010
0.137500	4193284.0274021113	4.9085009535283774e-010
0.143750	4172100.4183722762	9.8170019070567548e-010
0.150000	4150119.1042188639	9.8170019070567548e-010
0.156250	4127359.6955101276	4.9085009535283774e-010
0.162500	4103842.3969836729	0
0.168750	4079587.9794357521	4.9085009535283774e-010
0.175000	4054617.7508643502	4.9085009535283774e-010
0.181250	4028953.5269179912	0
0.187500	4002617.6007033894	0
0.193750	3975632.7120061358	0
0.200000	3948022.0159797841	0
0.206250	3920004.5232593939	0
0.212500	3891405.6752934055	0
0.218750	3862249.4372529434	4.9085009535283774e-010
0.225000	3832560.0436779922	0
0.231250	3802361.9648912391	9.8170019070567548e-010
0.237500	3771679.8733179374	4.9085009535283774e-010
0.243750	3740538.6097718114	0
0.250000	3708963.1497666696	9.8170019070567548e-010
0.256250	3676978.5699130408	0
0.262500	3644610.0144585269	0
0.268750	3611882.6620300291	0
0.275000	3578821.6926350808	4.9085009535283774e-010
0.281250	3545452.2549787415	4.9085009535283774e-010
0.287500	3511799.4341514492	4.9085009535283774e-010
0.293750	3477888.2197421119	0
0.300000	3443743.4744295003	0
0.306250	3409561.3726269146	4.9085009535283774e-010
0.312500	3375191.9385691145	4.9085009535283774e-010
0.318750	3340659.5444326503	4.9085009535283774e-010
0.325000	3305988.3218421112	4.9085009535283774e-010
0.331250	3271202.1335145193	4.9085009535283774e-010
0.337500	3236324.545652214	4.9085009535283774e-010
0.343750	3201378.8011263544	4.9085009535283774e-010
0.350000	3166387.7934911549	0
0.356250	3131374.041867062	4.9085009535283774e-010
0.362500	3096359.6667290116	4.9085009535283774e-010
0.368750	3061366.3666337715	4.9085009535283774e-010
0.375000	3026415.3959182422	0
0.381250	2991527.5433983742	4.9085009535283774e-010
0.387500	2956723.1120960717	4.9085009535283774e-010
0.393750	2922021.9000191721	0
0.400000	2887443.1820172598	4.9085009535283774e-010
0.406250	2853154.1304107164	4.9085009535283774e-010
0.412500	2819021.1880463776	4.9085009535283774e-010
0.418750	2785061.9917383152	0
0.425000	2751293.594999182	4.9085009535283774e-010
0.431250	2717732.4554474647	4.9085009535283774e-010
0.437500	2684394.4233788131	4.9085009535283774e-010
0.443750	2651294.7315074364	4.9085009535283774e-010
0.450000	2618447.9858812164	0
0.456250	2585868.1579717058	0
0.462500	2553568.5779378526	0
0.468750	2521561.9290599083	4.9085009535283774e-010
0.475000	2489860.2433376396	4.9085009535283774e-010
0.481250	2458474.8982446985	4.9085009535283774e-010
0.487500	2427416.6146287313	4.9085009535283774e-010
0.493750	2396695.4557446176	4.9085009535283774e-010
0.500000	2366320.8274060776	4.9085009535283774e-010
0.506250	2336425.9960572426	4.9085009535283774e-010
0.512500	2306891.4692302011	0
0.518750	2277724.7976106331	0
0.525000	2248932.8865465061	4.9085009535283774e-010
0.531250	2220522.0013269661	4.9085009535283774e-010
0.537500	2192497.7734503327	4.9085009535283774e-010
0.543750	2164865.2078534951	4.9085009535283774e-010
0.550000	2137628.6910734181	4.9085009535283774e-010
0.556250	2110792.0003099362	4.9085009535283774e-010
0.562500	2084358.3133575586	2.4542504767641887e-010
0.568750	2058330.2193726976	4.9085009535283774e-010
0.575000	2032709.7304414106	4.9085009535283774e-010
0.581250	2007498.2939116205	0
0.587500	1982696.8054526928	2.4542504767641887e-010
0.593750	1958305.6228042743	0
0.600000	1934324.5801753928	0
0.606250	1910857.2511900824	0
0.612500	1887795.4512984143	2.4542504767641887e-010
0.618750	1865137.5941234832	2.4542504767641887e-010
0.625000	1842881.631816458	0
0.631250	1821025.0720961546	2.4542504767641887e-010
0.637500	1799564.9956951044	0
0.643750	1778498.0741695091	0
0.650000	1757820.5880303499	0
0.656250	1737528.4451529696	0
0.662500	1717617.1994225155	2.4542504767641887e-010
0.668750	1698082.0695728478	2.4542504767641887e-010
0.675000	1678917.9581768145	0
0.681250	1660119.4707461654	2.4542504767641887e-010
0.687500	1641680.9348998761	2.4542504767641887e-010
0.693750	1623596.4195601926	2.4542504767641887e-010
0.700000	1605859.7541363777	0
0.706250	1588551.1156433367	2.4542504767641887e-010
0.712500	1571575.0596161408	2.4542504767641887e-010
0.718750	1554924.8986118247	0
0.725000	1538593.779584453	2.4542504767641887e-010
0.731250	1522574.7023785168	0
0.737500	1506860.5379966949	2.4542504767641887e-010
0.743750	1491444.0466085279	0
0.750000	1476317.8952676731	0
0.756250	1461474.6753067167	2.4542504767641887e-010
0.762500	1446906.9193797966	2.4542504767641887e-010
0.768750	1432607.1181246284	0
0.775000	1418567.7364169562	2.4542504767641887e-010
0.781250	1404781.2291918457	2.4542504767641887e-010
0.787500	1391240.0568077546	0
0.793750	1377936.6999307887	0
0.800000	1364863.6739181171	0
0.806250	1352086.1601526497	0
0.812500	1339522.1779370643	0
0.818750	1327164.4903675816	2.4542504767641887e-010
0.825000	1315005.9462977501	2.4542504767641887e-010
0.831250	1303039.4919690469	0
0.837500	1291258.1820447333	0
0.843750	1279655.1900374438	2.4542504767641887e-010
0.850000	1268223.8181225902	2.4542504767641887e-010
0.856250	1256957.5063313092	2.4542504767641887e-010
0.862500	1245849.8411182649	0
0.868750	1234894.5633012461	2.4542504767641887e-010
0.875000	1224085.5753710193	2.4542504767641887e-010
0.881250	1213416.9481714873	2.4542504767641887e-010
0.887500	1202882.9269516862	0
0.893750	1192477.9367926344	0
0.900000	1182196.5874135254	2.4542504767641887e-010
0.906250	1172096.0583768862	2.4542504767641887e-010
0.912500	1162107.3647703028	0
0.918750	1152225.6631659323	2.4542504767641887e-010
0.925000	1142446.3077546279	2.4542504767641887e-010
0.931250	1132764.8522337207	2.4542504767641887e-010
0.937500	1123177.0511287467	2.4542504767641887e-010
0.943750	1113678.8605620691	2.4542504767641887e-010
0.950000	1104266.4384824182	2.4542504767641887e-010
0.956250	1094936.1443703866	2.4542504767641887e-010
0.962500	1085684.5384358803	2.4542504767641887e-010
0.968750	1076508.380324418	0
0.975000	1067404.627350013	2.4542504767641887e-010
0.981250	1058370.4322731574	2.4542504767641887e-010
0.987500	1049403.1406431166	2.4542504767641887e-010
0.993750	1040500.2877244197	1.2271252383820944e-010
1.000000	1031659.5950279867	1.2271252383820944e-010
1.006250	1022930.3745493528	0
1.012500	1014257.9687320853	1.2271252383820944e-010
1.018750	1005640.7574656804	0
1.025000	997077.28686963837	0
1.031250	988566.26419525477	0
1.037500	980106.5524635358	0
1.043750	971697.16486193403	0
1.050000	963337.25892268983	0
1.056250	955026.13050557114	0
1.062500	946763.20760773751	1.2271252383820944e-010
1.068750	938548.04402336315	0
1.075000	930380.31287546293	1.2271252383820944e-010
1.081250	922259.80004214495	0
1.087500	914186.39749924024	1.2271252383820944e-010
1.093750	906160.09660089016	0
1.100000	898180.98131932807	0
1.106250	890293.40916469065	0
1.112500	882451.9488264129	0
1.118750	874656.91657836107	0
1.125000	866908.69444349851	1.2271252383820944e-010
1.131250	859207.72355658631	0
1.137500	851554.49759996287	0
1.143750	843949.55632969155	1.2271252383820944e-010
1.150000	836393.47920866148	1.2271252383820944e-010
1.156250	828886.87916245684	0
1.162500	821430.39647307515	1.2271252383820944e-010
1.168750	814024.69282474718	1.2271252383820944e-010
1.175000	806670.44551530143	1.2271252383820944e-010
1.181250	799368.34184569411	1.2271252383820944e-010
1.187500	792119.07369943033	1.2271252383820944e-010
1.193750	784923.33232277643	0
1.200000	777781.80331574858	0
1.206250	770732.2948444254	1.2271252383820944e-010
1.212500	763737.22038006503	0
1.218750	756797.20089665649	1.2271252383820944e-010
1.225000	749912.83448608581	0
1.231250	743084.69253401377	1.2271252383820944e-010
1.237500	736313.31614756689	1.2271252383820944e-010
1.243750	729599.21283845021	1.2271252383820944e-010
1.250000	722942.85346421506	0
1.256250	716344.66942954913	0
1.262500	709805.05014859233	0
1.268750	703324.340768461	1.2271252383820944e-010
1.275000	696902.8401533328	0
1.281250	690540.79912765138	0
1.287500	684238.41897624894	1.2271252383820944e-010
1.293750	677995.85019841604	0
1.300000	671813.19151225162	1.2271252383820944e-010
1.306250	665719.96297774673	1.2271252383820944e-010
1.312500	659685.68363415904	1.2271252383820944e-010
1.318750	653710.40166093491	0
1.325000	647794.10982962803	0
1.331250	641936.74566658516	1.2271252383820944e-010
1.337500	636138.19183138013	0
1.343750	630398.27670332266	1.2271252383820944e-010
1.350000	624716.77516791294	1.2271252383820944e-010
1.356250	619093.40959465876	0
1.362500	613527.85099729535	1.2271252383820944e-010
1.368750	608019.72036706842	0
1.375000	602568.5901694214	0
1.381250	597173.98599415191	1.2271252383820944e-010
1.387500	591835.38834883727	0
1.393750	586552.23458512477	1.2271252383820944e-010
1.400000	581323.92094731785	1.2271252383820944e-010
1.406250	576175.49083984341	1.2271252383820944e-010
1.412500	571079.52810247871	1.2271252383820944e-010
1.418750	566035.25627937808	0
1.425000	561041.86819811701	1.2271252383820944e-010
1.431250	556098.52847180713	0
1.437500	551204.37605782144	0
1.443750	546358.52686233609	1.2271252383820944e-010
1.450000	541560.07638001628	0
1.456250	536808.10235831921	1.2271252383820944e-010
1.462500	532101.66747606511	1.2271252383820944e-010
1.468750	527439.82202613342	0
1.475000	522821.60659239057	6.1356261919104718e-011
1.481250	518246.05471119256	0
1.487500	513712.19550813048	0
1.493750	509219.05630096921	6.1356261919104718e-011
1.500000	504765.66516008403	6.1356261919104718e-011
1.506250	500370.59606649063	0
1.512500	496012.61920763005	6.1356261919104718e-011
1.518750	491686.03701515001	0
1.525000	487399.32587282296	0
1.531250	483147.16007803369	0
1.537500	478928.69286199473	0
1.543750	474743.09275952715	6.1356261919104718e-011
1.550000	470589.54556503921	0
1.556250	466467.25618641858	1.2271252383820944e-010
1.562500	462375.45039243007	0
1.568750	458313.37644969986	6.1356261919104718e-011
1.575000	454280.30664583796	6.1356261919104718e-011
1.581250	450275.53869573039	1.2271252383820944e-010
1.587500	446298.39702851989	1.2271252383820944e-010
1.593750	442348.23395325791	0
1.600000	438424.43070169853	6.1356261919104718e-011
1.606250	434542.70269686764	6.1356261919104718e-011
1.612500	430685.38704657496	0
1.618750	426851.94298536086	6.1356261919104718e-011
1.625000	423041.86229158856	6.1356261919104718e-011
1.631250	419254.66971672891	0
1.637500	415489.92329101398	6.1356261919104718e-011
1.643750	411747.21450695529	0
1.650000	408026.16838261572	6.1356261919104718e-011
1.656250	404326.44340690982	6.1356261919104718e-011
1.662500	400647.731369588	0
1.668750	396989.75707890018	6.1356261919104718e-011
1.675000	393352.27797028422	0
1.681250	389735.08360973228	0
1.687500	386137.99509579124	6.1356261919104718e-011
1.693750	382560.86436443456	0
1.700000	379003.57340129506	6.1356261919104718e-011
1.706250	375478.55479893985	6.1356261919104718e-011
1.712500	371972.61973978719	0
1.718750	368485.74833308178	6.1356261919104718e-011
1.725000	365017.94646993279	0
1.731250	361569.24464925705	0
1.737500	358139.6967428443	0
1.743750	354729.37870522024	6.1356261919104718e-011
1.750000	351338.38723405829	6.1356261919104718e-011
1.756250	347966.83838696423	6.1356261919104718e-011
1.762500	344614.86616048077	0
1.768750	341282.62103718909	6.1356261919104718e-011
1.775000	337970.26850677602	0
1.781250	334677.98756690591	6.1356261919104718e-011
1.787500	331405.96920970414	0
1.793750	328154.41489958158	0
1.800000	324923.53504805878	0
1.806250	321722.7408429645	0
1.812500	318542.46582152147	6.1356261919104718e-011
1.818750	315382.97241671116	6.1356261919104718e-011
1.825000	312244.52524680283	6.1356261919104718e-011
1.831250	309127.38966163452	6.1356261919104718e-011
1.837500	306031.83031686669	0
1.843750	302958.10978085169	0
1.850000	299906.48717856745	6.1356261919104718e-011
1.856250	296877.21687683166	6.1356261919104718e-011
1.862500	293870.54721479194	6.1356261919104718e-011
1.868750	290886.71928344847	6.1356261919104718e-011
1.875000	287925.96575770975	6.1356261919104718e-011
1.881250	284988.50978423457	6.1356261919104718e-011
1.887500	282074.56392804306	6.1356261919104718e-011
1.893750	279184.32918061555	0
1.900000	276317.99403192103	0
1.906250	273482.95155903406	6.1356261919104718e-011
1.912500	270671.61233737698	0
1.918750	267884.09375023894	6.1356261919104718e-011
1.925000	265120.49855628924	6.1356261919104718e-011
1.931250	262380.91429931775	6.1356261919104718e-011
1.937500	259665.41279035545	6.1356261919104718e-011
1.943750	256974.04966265423	6.1356261919104718e-011
1.950000	254306.86399973877	6.1356261919104718e-011
1.956250	251663.87803647068	0
1.962500	249045.09693280043	0
1.968750	246450.50861962285	0
1.975000	243880.08371590669	0
1.981250	241333.77551601548	0
1.987500	238811.52004590834	3.0678130959552359e-011
1.993750	236313.23618668009	0
2.000000	233838.82586368121	6.1356261919104718e-011
2.006250	231392.3910912092	0
2.012500	228969.19455439976	0
2.018750	226569.13588012703	6.1356261919104718e-011
2.025000	224192.09808683768	0
2.031250	221837.94807397359	0
2.037500	219506.53716267907	3.0678130959552359e-011
2.043750	217197.70168483298	6.1356261919104718e-011
2.050000	214911.26361732295	0
2.056250	212647.03125836328	0
2.062500	210404.79994256521	3.0678130959552359e-011
2.068750	208184.3527913829	3.0678130959552359e-011
2.075000	205985.46149548879	3.0678130959552359e-011
2.081250	203807.88712557495	0
2.087500	201651.38096803636	0
2.093750	199515.68538196065	3.0678130959552359e-011
2.100000	197400.53467383477	3.0678130959552359e-011
2.106250	195308.68525708531	3.0678130959552359e-011
2.112500	193236.39937452672	3.0678130959552359e-011
2.118750	191183.37398417766	3.0678130959552359e-011
2.125000	189149.30212003906	3.0678130959552359e-011
2.131250	187133.87379918131	0
2.137500	185136.77692546271	3.0678130959552359e-011
2.143750	183157.69818653268	3.0678130959552359e-011
2.150000	181196.32394085036	3.0678130959552359e-011
2.156250	179252.34109154475	3.0678130959552359e-011
2.162500	177325.43794404596	3.0678130959552359e-011
2.168750	175415.3050445299	3.0678130959552359e-011
2.175000	173521.6359963401	3.0678130959552359e-011
2.181250	171644.12825168067	3.0678130959552359e-011
2.187500	169782.48387601343	0
2.193750	167936.41028273426	3.0678130959552359e-011
2.200000	166105.6209358596	3.0678130959552359e-011
2.206250	164291.00759434464	3.0678130959552359e-011
2.212500	162490.84292316131	0
2.218750	160704.87798616893	3.0678130959552359e-011
2.225000	158932.87205300547	3.0678130959552359e-011
2.231250	157174.59311513716	3.0678130959552359e-011
2.237500	155429.81836000868	3.0678130959552359e-011
2.243750	153698.33460220575	0
2.250000	151979.93867071852	3.0678130959552359e-011
2.256250	150274.43775157109	3.0678130959552359e-011
2.262500	148581.64968526326	3.0678130959552359e-011
2.268750	146900.32383011232	0
2.275000	145233.53821101779	3.0678130959552359e-011
2.281250	143577.9057944424	0
2.287500	141934.36848838112	3.0678130959552359e-011
2.293750	140302.80026899467	0
2.300000	138683.08659356277	0
2.306250	137075.17234522448	3.0678130959552359e-011
2.312500	135478.63805825022	3.0678130959552359e-011
2.318750	133893.41065624458	3.0678130959552359e-011
2.325000	132319.42806373187	0
2.331250	130756.63901915681	0
2.337500	129205.00284872667	1.5339065479776179e-011
2.343750	127664.4892025992	0
2.350000	126135.07775503544	0
2.356250	124616.75787025134	1.5339065479776179e-011
2.362500	123109.52823580147	1.5339065479776179e-011
2.368750	121613.39646542221	1.5339065479776179e-011
2.375000	120128.3786733485	0
2.381250	118654.499022191	0
2.387500	117191.78924653024	0
2.393750	115740.28815444242	1.5339065479776179e-011
2.400000	114300.04110921768	0
2.406250	112870.32939898732	1.5339065479776179e-011
2.412500	111451.76016654912	0
2.418750	110044.39017808691	1.5339065479776179e-011
2.425000	108648.28081584841	3.0678130959552359e-011
2.431250	107263.49749502822	1.5339065479776179e-011
2.437500	105890.10907456037	1.5339065479776179e-011
2.443750	104528.18726412918	1.5339065479776179e-011
2.450000	103177.80602968871	1.5339065479776179e-011
2.456250	101839.04099975376	0
2.462500	100511.96887468848	0
2.468750	99196.666841177168	1.5339065479776179e-011
2.475000	97893.21199400835	1.5339065479776179e-011
2.481250	96601.680767247439	0
2.487500	95322.148376808254	0
2.493750	94054.688276360845	0
2.500000	92799.371628438108	1.5339065479776179e-011
2.506250	91554.553206944358	0
2.512500	90321.845641528838	0
2.518750	89101.326220401694	0
2.525000	87893.067673244645	1.5339065479776179e-011
2.531250	86697.137744839172	1.5339065479776179e-011
2.537500	85513.59879345863	1.5339065479776179e-011
2.543750	84342.507415196844	1.5339065479776179e-011
2.550000	83183.914095287662	1.5339065479776179e-011
2.556250	82037.862887352123	0
2.562500	80904.391121393739	1.5339065479776179e-011
2.568750	79783.529141236912	0
2.575000	78675.300071985548	1.5339065479776179e-011
2.581250	77579.719617956289	1.5339065479776179e-011
2.587500	76496.795891416274	0
2.593750	75426.529272338274	0
2.600000	74368.912299261399	1.5339065479776179e-011
2.606250	73321.985843470771	1.5339065479776179e-011
2.612500	72287.520977538908	0
2.618750	71265.476378454259	0
2.625000	70255.80305864547	0
2.631250	69258.444408765659	1.5339065479776179e-011
2.637500	68274.049616356468	1.5339065479776179e-011
2.643750	67300.641831719215	1.5339065479776179e-011
2.650000	66339.329587741187	1.5339065479776179e-011
2.656250	65390.037799453436	7.6695327398880897e-012
2.662500	64452.684044634705	1.5339065479776179e-011
2.668750	63527.178772886386	1.5339065479776179e-011
2.675000	62613.425538399242	1.5339065479776179e-011
2.681250	61711.321255204108	0
2.687500	60820.756473629313	0
2.693750	59941.615676625472	7.6695327398880897e-012
2.700000	59073.777594562751	7.6695327398880897e-012
2.706250	58214.764988435447	1.5339065479776179e-011
2.712500	57366.683250021291	7.6695327398880897e-012
2.718750	56529.393282391495	1.5339065479776179e-011
2.725000	55702.751882953802	0
2.731250	54886.612120503079	0
2.737500	54080.82372184725	0
2.743750	53285.233466405087	1.5339065479776179e-011
2.750000	52499.685587168016	0
2.756250	51724.022176411105	7.6695327398880897e-012
2.762500	50958.083594545031	0
2.768750	50201.708880507605	7.6695327398880897e-012
2.775000	49454.736162109126	0
