#List of files for average calculation
#C:\Lea\runGPU\3\SymmetricSlab_100nm2_Vegas\SymmetricSlab_100nm2_Vegas_1
#C:\Lea\runGPU\3\SymmetricSlab_100nm2_Vegas\SymmetricSlab_100nm2_Vegas_2
#C:\Lea\runGPU\3\SymmetricSlab_100nm2_Vegas\SymmetricSlab_100nm2_Vegas_3
#C:\Lea\runGPU\3\SymmetricSlab_100nm2_Vegas\SymmetricSlab_100nm2_Vegas_4
#C:\Lea\runGPU\3\SymmetricSlab_100nm2_Vegas\SymmetricSlab_100nm2_Vegas_5
#C:\Lea\runGPU\3\SymmetricSlab_100nm2_Vegas\SymmetricSlab_100nm2_Vegas_6
#C:\Lea\runGPU\3\SymmetricSlab_100nm2_Vegas\SymmetricSlab_100nm2_Vegas_7
#C:\Lea\runGPU\3\SymmetricSlab_100nm2_Vegas\SymmetricSlab_100nm2_Vegas_8
#C:\Lea\runGPU\3\SymmetricSlab_100nm2_Vegas\SymmetricSlab_100nm2_Vegas_9
#C:\Lea\runGPU\3\SymmetricSlab_100nm2_Vegas\SymmetricSlab_100nm2_Vegas_10
#Average Chi square (Sigma units): 1.4568318094515
#Sigma Chi square: 0.17074669195038
#Calculation was done on GPU
q [nm^-1]	Intensity [A.U]	Sigma [A.U]
0.000000	78400000000	5.0862630208333331e-006
0.006250	77055488216.460449	3457314.55089887
0.012500	72131736846.159821	1388038.1637773584
0.018750	64509157177.266296	3152133.7827088339
0.025000	55536570682.181046	3365656.5990833933
0.031250	45734232092.814293	5738261.5596609386
0.037500	36104287308.164818	6603257.1052474882
0.043750	27737613315.976543	3977361.8859123737
0.050000	20938497425.099903	6919487.7179214908
0.056250	15597784880.520468	10572748.5273613
0.062500	11812717348.992146	4895611.0154480729
0.068750	9326359179.8222561	4209240.6056484347
0.075000	7719156605.6753216	5000758.7064115768
0.081250	6671525361.4017057	4624547.9568469701
0.087500	5919563723.2582493	2659520.5442383075
0.093750	5314164518.6910486	3563538.8933829316
0.100000	4716582348.7702007	3381061.4972305498
0.106250	4130969967.7367821	2958272.2260559341
0.112500	3606966611.0762243	3032935.2710879738
0.118750	3121982978.5201616	2900557.2036934821
0.125000	2705599122.1378264	2847664.7209561602
0.131250	2379720062.2633448	1889056.0401532094
0.137500	2134547645.8547397	2022294.8615317042
0.143750	1937601707.6482856	2125201.5328537887
0.150000	1777122451.3562877	2178194.7987364833
0.156250	1637448524.1529105	2361843.798568964
0.162500	1498790339.9366736	1962578.8069399365
0.168750	1360649817.1666272	1713187.5201427515
0.175000	1227968690.423979	1481872.9674381397
0.181250	1104860386.0787294	1760505.0443113986
0.187500	991213824.23367	1263111.9770638631
0.193750	894484400.02817667	1004898.2110704163
0.200000	816883101.83181369	1007741.0595610439
0.206250	751228561.53246343	993084.5352030833
0.212500	695691723.01281786	756183.759287372
0.218750	644971129.45477509	702158.78491107142
0.225000	596284514.50163519	752222.8606717448
0.231250	546168809.77554965	746072.18929675187
0.237500	496569016.1172992	701376.14277599158
0.243750	450004253.31841838	112630.47405261692
0.250000	405481751.88171846	357846.3593333349
0.256250	366788916.5042904	219887.816968542
0.262500	334704735.8947717	319902.13352692977
0.268750	307808263.84878296	405072.89301523863
0.275000	284227384.24504536	438496.53480779787
0.281250	262654511.48773971	450290.87858577113
0.287500	241387985.84832877	384001.5040709863
0.293750	219540546.61833486	335326.78177853522
0.300000	197845939.65657669	329362.62588558928
0.306250	177347245.61429286	219924.36047031308
0.312500	157887408.30902594	187687.53082704326
0.318750	140514388.14073831	300785.03773086733
0.325000	126024406.70393276	246190.38272200807
0.331250	114206168.96876197	172939.74038506803
0.337500	103777669.48930044	131443.08238188797
0.343750	94414493.90344657	147123.51761337419
0.350000	85317476.024166703	112331.00958202471
0.356250	75943757.946831524	120807.90934274311
0.362500	66344183.040437557	110397.30333618481
0.368750	57118419.710819528	84120.304649419384
0.375000	48636740.084530659	74568.741223641118
0.381250	41175388.822898343	73888.616197333686
0.387500	35236126.142008282	38937.929471129981
0.393750	30663456.174473029	45231.863137231907
0.400000	26933287.43103702	57731.14458125049
0.406250	23781628.950373154	50207.185212048636
0.412500	20759989.994593941	47800.004768893334
0.418750	17669325.353086185	70099.899154419283
0.425000	14321318.370044744	46221.696829015309
0.431250	11163539.624415582	27630.089262436177
0.437500	8473336.5596135221	18498.274978044701
0.443750	6349511.4894665591	11160.313430202325
0.450000	5054501.730922183	10258.586963542519
0.456250	4565789.6175727611	13877.682709184564
0.462500	4656145.872641121	9080.4331636743427
0.468750	5035616.4758115876	13121.288908161659
0.475000	5537359.3122760383	17618.724100426469
0.481250	5959156.3045433043	22326.076860389061
0.487500	6261023.7333201608	18640.760617404005
0.493750	6617640.9296227442	15883.165779426357
0.500000	7246379.4631894976	25869.254541508129
0.506250	8325806.082812923	15996.941434231558
0.512500	9844649.8830131255	18945.927422483481
0.518750	11875406.893817218	21480.00963731061
0.525000	14240607.071060311	35440.624790479633
0.531250	16841566.14876423	44544.13117564295
0.537500	19490394.876610506	35253.85637306537
0.543750	22119113.463366989	56430.117036217416
0.550000	24690807.723571114	60224.285486724293
0.556250	27243570.130984001	63162.466854062302
0.562500	29963949.845925231	65092.294748800028
0.568750	32970793.407275051	58706.638465359298
0.575000	36298688.883092731	65397.223126086086
0.581250	39916327.012356862	57866.705187882406
0.587500	43800948.22257524	27785.147835316584
0.593750	47841486.848974958	40083.475224630267
0.600000	51896772.389978878	52102.477109384265
0.606250	55910087.573447227	59974.116797797345
0.612500	59900688.929440759	119207.61815140866
0.618750	63875541.406579241	123527.95219374482
0.625000	67924667.555179253	130302.33385419623
0.631250	72201282.183870643	126873.90231987627
0.637500	76665740.34973982	131543.4363771432
0.643750	81322544.612587616	134778.71666256204
0.650000	86133369.254137129	136169.19886333635
0.656250	90996028.798868105	122175.9194167213
0.662500	95959152.967201218	128937.80102152513
0.668750	100851375.36266036	121030.87165740802
0.675000	105817885.70709695	108816.942773795
0.681250	110726896.01780871	115334.97792035011
0.687500	115636194.30826771	122948.1283220089
0.693750	120618259.68743172	130321.82366389439
0.700000	125791612.86430807	205190.52477619611
0.706250	131146516.94580857	205018.52161104907
0.712500	136536001.28068352	224605.28875072359
0.718750	141953309.21260041	159526.31580567229
0.725000	147473586.27741274	157842.79777680288
0.731250	152913842.77306128	150320.93403190881
0.737500	158262955.30471855	139347.33259747841
0.743750	163594422.72229198	315809.55876432115
0.750000	169021443.27725139	341242.92886832374
0.756250	174417349.98091105	370267.47234170674
0.762500	179979159.19769627	175817.58562317197
0.768750	185673360.70995373	190232.32061362889
0.775000	191389734.14361241	206020.50217552445
0.781250	197074225.95126998	221394.92334842446
0.787500	202899736.07964239	385055.05426598474
0.793750	208618757.74804336	391973.82212554931
0.800000	214207488.51222408	433720.86543926736
0.806250	219850093.95983148	403167.65373818227
0.812500	225508655.52402419	418277.01972170302
0.818750	231140872.91705123	431490.57739672635
0.825000	236757703.14554009	446282.20931582106
0.831250	242304938.4516235	240672.7515045628
0.837500	248128172.71288246	245867.73218143077
0.843750	253865392.88199314	270598.50539177726
0.850000	259857564.0640575	535855.2049059195
0.856250	265659385.52488214	564559.21941135684
0.862500	271294163.01094568	598509.79335193196
0.868750	276830805.02877241	623202.43664258835
0.875000	282530407.74400431	329290.54029767221
0.881250	288160713.41387337	337742.93312580622
0.887500	293726131.85101902	357147.80848104082
0.893750	298954458.59657794	287624.76841214177
0.900000	304649620.05295157	273418.94268234895
0.906250	310262527.28749889	262765.8908878818
0.912500	315752935.37708068	256986.07043640851
0.918750	321506003.7978698	487655.47100314946
0.925000	326981644.94933641	513837.45939259481
0.931250	332263881.71948761	529468.47764280252
0.937500	337565600.94075388	831519.82510763151
0.943750	342976246.76919937	821586.22506211302
0.950000	348295874.51106519	803687.52211188863
0.956250	353516220.39297688	780777.22947731998
0.962500	359211016.97385317	712108.01320093474
0.968750	364579000.9583894	722180.89147236315
0.975000	369761211.71324539	706638.18691066187
0.981250	374454288.10538602	532810.35715539369
0.987500	379696588.31539518	545305.14832376561
0.993750	384794522.69804007	560833.62657318916
1.000000	389743529.21065462	578279.53418732283
1.006250	394923850.27089226	396783.07138814672
1.012500	399957711.66585058	361029.60942978441
1.018750	404793493.54617131	339054.32785897434
1.025000	409673695.98569769	577005.58660066151
1.031250	414630251.61289734	602184.46549567115
1.037500	419414255.33346075	603206.41607320227
1.043750	424674422.83039099	643146.10960124806
1.050000	429537581.28415382	635113.02546224347
1.056250	434189323.94515914	637891.60013839894
1.062500	438704680.10917568	641818.95645549987
1.068750	442521049.41104984	761565.36070720525
1.075000	447113910.10046232	798179.82512730767
1.081250	451466865.01112616	842938.60173763928
1.087500	455318967.80847168	542943.7615937459
1.093750	459803097.92002708	541256.44928295584
1.100000	464090616.58200324	560526.92375375738
1.106250	468233580.84061164	568427.81921388768
1.112500	472600608.44596928	954915.55829420255
1.118750	476767749.12336051	925152.56988138985
1.125000	480728009.14417487	940345.56545895152
1.131250	484894578.14606941	958990.84060108487
1.137500	488867266.69182718	1005366.7708861285
1.143750	492681006.78586978	1044621.1057281723
1.150000	496337107.27041453	1072713.2083842331
1.156250	500343404.69391024	1162507.9466876953
1.162500	504053049.45802498	1203159.2388557552
1.168750	507578786.68408155	1242945.7509157283
1.175000	511093276.66293889	907705.02146176447
1.181250	514625395.38354969	955539.47698560508
1.187500	517931161.36540431	954494.47803310445
1.193750	521077348.75879794	971433.42758087022
1.200000	524489047.47377378	714024.04172420758
1.206250	527781895.87920189	752589.13461756066
1.212500	530821111.90328968	749133.1398773269
1.218750	533343909.28622377	1130306.9604129691
1.225000	536445900.83065385	1132959.5895062436
1.231250	539351739.96018267	1135351.3687549152
1.237500	542038673.90572453	1101063.5562567119
1.243750	545349965.99922097	1082535.0519437385
1.250000	548026904.28665972	1117116.4323646659
1.256250	550520964.763412	1138817.281128919
1.262500	552164527.9879458	799520.87648182991
1.268750	554685407.99196315	832674.63735862437
1.275000	557045240.4312427	882458.67349847907
1.281250	559235161.54094911	943093.92918816698
1.287500	561588943.14664209	818419.44892467337
1.293750	563776838.85697734	802703.09654545283
1.300000	565768550.19173491	779578.18582953373
1.306250	567809734.42629075	1149528.2074162308
1.312500	569844185.49273109	1198828.9529900195
1.318750	571690570.57057321	1243823.6621398849
1.325000	573360893.51169264	1277495.4882878512
1.331250	575348112.4382813	710111.90782384924
1.337500	577059299.78253722	713639.58270816493
1.343750	578565215.55255651	718311.00451047625
1.350000	580065564.47082615	410547.48389644822
1.356250	581640130.22533214	378442.51807507488
1.362500	583013488.9251734	377867.64041198854
1.368750	584168401.20315099	403733.66430430982
1.375000	585422963.50523102	679578.15296372934
1.381250	586567029.15699112	674382.02326883329
1.387500	587506998.05602479	660963.28162353905
1.393750	588001969.54048681	1114705.4552078266
1.400000	588981621.44031262	1088700.4145526432
1.406250	589785700.31804037	1076347.490648434
1.412500	590394717.95155597	1071894.3052858866
1.418750	591036075.73021889	1027024.5303304306
1.425000	591656742.79116035	1061163.7181713954
1.431250	592081909.54651988	1108718.8073020752
1.437500	592715913.84786642	1115059.918632525
1.443750	593163447.6858691	1166136.2234326338
1.450000	593426094.16067946	1205569.7991230299
1.456250	593510980.70408034	1266073.6943649559
1.462500	594515620.57208312	828402.61848540232
1.468750	594668269.29228747	851969.30694965983
1.475000	594626651.67123353	853589.92766346072
1.481250	593737668.61945093	954231.19697928545
1.487500	593693586.946733	1008272.1298568984
1.493750	593458271.58364987	1068595.4326356791
1.500000	593051300.16630137	1114592.2483275454
1.506250	592951062.79559064	583589.48473139363
1.512500	592505034.88528419	538634.31328207592
1.518750	591857662.82859349	520986.86447870207
1.525000	592149563.82699561	867920.75873384473
1.531250	591687233.67744899	958211.03178450617
1.537500	591052369.3457787	1027893.2839912436
1.543750	589505188.2306664	755320.06894912745
1.550000	588828638.58913755	789716.26213180099
1.556250	587939908.10257077	844191.56956641353
1.562500	586876456.54943216	871467.64586612477
1.568750	586266361.50842202	869007.23684543942
1.575000	585230787.00773621	903234.94183735992
1.581250	584036073.56824374	940532.97358726815
1.587500	582408287.38742304	1218854.7937012685
1.593750	581326158.5622623	1178658.8218064045
1.600000	580063108.33162904	1149254.9761314963
1.606250	578621913.47687137	1137409.9167199109
1.612500	577296026.84062767	797411.8420238113
1.618750	575867111.51959205	806939.32615357218
1.625000	574265512.958969	819978.95568362263
1.631250	571705882.92550969	823099.82939630421
1.637500	570167881.08081245	840906.33213132306
1.643750	568463450.91620421	859073.93065489025
1.650000	566596215.87798846	875665.7980953065
1.656250	564862468.34595621	816037.15856307768
1.662500	563044661.86238933	860789.52774799406
1.668750	561095080.64700258	877930.5535658662
1.675000	559086916.99176204	726943.66458662599
1.681250	557106979.0412451	709104.5436347028
1.687500	554981556.62084651	683997.03191392694
1.693750	552713502.77618408	661112.95350863831
1.700000	550799648.34159148	805292.35561425751
1.706250	548595666.58187759	821580.92672892439
1.712500	546256141.47953701	823061.08508013934
1.718750	542936856.71686447	794492.72843335161
1.725000	540627079.23128152	772202.89528468484
1.731250	538182657.66048265	743686.68097959564
1.737500	535606085.60795057	710905.72718752897
1.743750	534035728.83494437	944983.33772977383
1.750000	531451169.26375771	962338.39996678743
1.756250	528737251.83859998	976147.33276196802
1.762500	525871698.3886711	1271896.7283454153
1.768750	523254917.13532054	1306372.091009364
1.775000	520503579.81750476	1335455.0343005301
1.781250	517603701.17037284	1354846.2110418498
1.787500	514694278.72560614	1083030.3095070235
1.793750	511803809.66499633	1086316.7710039236
1.800000	508801744.61670238	1085430.4606589586
1.806250	505480613.59712619	911067.0462194219
1.812500	502515231.24420297	922374.38722686854
1.818750	499446904.27985924	928382.47994918295
1.825000	496261935.38807458	934205.32845677051
1.831250	493684200.16858739	452205.29286321765
1.837500	490524743.17744035	439108.81770251621
1.843750	487262541.68390357	454221.31387344899
1.850000	483315453.48089868	1233040.2305539318
1.856250	480089158.31453007	1285953.287257724
1.862500	476762096.9606393	1328147.2737061186
1.868750	473339168.33654737	1352968.626736254
1.875000	470670301.60694301	436263.24351545313
1.881250	467306772.35087597	399613.14613724616
1.887500	463850895.73862267	379855.28381126042
1.893750	460324839.83554924	814363.05559154681
1.900000	456905137.68571293	833119.97974063992
1.906250	453406804.18338168	822704.3548565926
1.912500	449809621.39748919	811875.84173195204
1.918750	446242780.98903739	579607.25331596995
1.925000	442706960.53870642	597764.00782161835
1.931250	439095991.86401212	604917.62595751113
1.937500	435428551.25533044	855554.79502858478
1.943750	431817087.26297796	860381.69836428715
1.950000	428127870.74603564	860552.5879215867
1.956250	424355301.97767788	847280.45586707559
1.962500	421104939.84134465	536891.06380152272
1.968750	417404728.39204222	535414.1558649342
1.975000	413652536.92036557	510213.96551729209
1.981250	409891707.49966908	1004050.0931254394
1.987500	406237005.6664058	1006987.8160396154
1.993750	402510168.28685248	998662.59653818852
2.000000	398701929.64185083	978449.3043836439
2.006250	395429411.92292321	899260.79477688414
2.012500	391650614.47881246	870805.26416589133
2.018750	387849385.0403226	849090.3268010061
2.025000	383269457.84793514	1056834.613224007
2.031250	379515172.03444129	1071206.7002485862
2.037500	375722103.05127925	1068105.3985987699
2.043750	372611598.3662259	775697.88704796135
2.050000	368876930.51875705	759392.22531145846
2.056250	365065617.68850124	743524.54582567199
2.062500	361202316.68701029	728041.04996553238
2.068750	357071415.07722121	721955.37468565884
2.075000	353263843.58256775	702139.32078141056
2.081250	349418285.05440396	715309.63722461206
2.087500	345323455.88487273	867582.12097580428
2.093750	341537773.11044186	871220.65483917587
2.100000	337724672.9425565	890394.09321737848
2.106250	333866290.51847702	894170.95429869345
2.112500	330190269.98084491	759520.48946306971
2.118750	326385886.01518714	702833.05651300086
2.125000	322567173.49391061	667362.52282924985
2.131250	318460755.46062386	524748.74138028163
2.137500	314701169.22884071	493756.49419333739
2.143750	310906914.74287677	453641.09031258011
2.150000	307060351.57101452	427655.99933625438
2.156250	303536105.97748071	501580.18047101679
2.162500	299762435.9355284	466100.80819648947
2.168750	295965355.00522524	438853.55717130523
2.175000	291966306.36062747	729099.26487278368
2.181250	288233885.44418478	731088.37332891673
2.187500	284473212.53458202	743297.69451615214
2.193750	280667123.18810052	744829.13455698034
2.200000	276980458.43211484	731896.93127254024
2.206250	273223639.18771869	750734.15506982559
2.212500	269477541.9125632	754348.28877983906
2.218750	265813041.90044117	498371.28120241023
2.225000	262181899.56733951	499550.82599478937
2.231250	258519769.32338864	482882.75138187886
2.237500	254833638.35123572	458061.86269853113
2.243750	251187269.99636096	312744.85654890863
2.250000	247562426.26097655	324188.52380815434
2.256250	243940297.19869751	328185.7166018954
2.262500	240392171.5185779	419415.79013212095
2.268750	236837049.11900228	435521.39459069225
2.275000	233277428.55881661	448523.20925400255
2.281250	229695109.48798126	456392.88331464218
2.287500	226412722.03395814	486214.11365572107
2.293750	222907907.4841373	451835.3568638888
2.300000	219397967.53638196	415915.15439982462
2.306250	215768660.47025219	494062.20383683534
2.312500	212359021.19421697	471042.68364037847
2.318750	208923231.77546614	444903.00480669847
2.325000	205485430.80537835	436359.17961776961
2.331250	202119396.14113885	460346.88107722835
2.337500	198748674.35618454	442186.9272742949
2.343750	195391586.04338977	404615.37502725347
2.350000	192067146.97224009	396908.95681354083
2.356250	188798606.06758243	365428.6629684979
2.362500	185526498.81467175	338987.98354471376
2.368750	182247490.36154139	301254.43011963507
2.375000	179017714.51550442	293732.44619811245
2.381250	175834067.28037113	275698.28001271997
2.387500	172657604.08983606	256371.71551422044
2.393750	169484023.46827218	271090.21503390302
2.400000	166411177.42028216	265844.20497728238
2.406250	163346905.7363883	278809.08882139658
2.412500	160271152.00098807	280859.20556148939
2.418750	157307787.45406827	232264.51199055515
2.425000	154305571.84937656	230531.57214084992
2.431250	151342814.32639563	202293.25831725937
2.437500	148240790.73675644	283717.61000331299
2.443750	145310937.73239166	275826.94538480777
2.450000	142399803.70403317	271111.47866391647
2.456250	139490423.43367216	264802.94877218222
2.462500	137071624.6971944	328484.63314428186
2.468750	134257621.01664743	330346.51423271548
2.475000	131478142.50140353	333703.87371709186
2.481250	128437254.42940328	306717.71904604172
2.487500	125750524.02937755	293785.69334198255
2.493750	123067296.47546248	278362.89649710315
2.500000	120385636.71377179	261547.1101395927
2.506250	117838954.66394205	295873.21813356184
2.512500	115232089.69190133	267847.29121320747
2.518750	112659375.93056569	246359.64036266919
2.525000	110153879.29452126	371797.57958167541
2.531250	107637040.9959089	370376.2144986199
2.537500	105161457.18610984	358852.22124165006
