#List of files for average calculation
#C:\D+_tests\D+_Phase_1\GPU\No_Charges\V_54\Explicit_Ring_DOL_Hybrid_Solution_without_Solvation\Explicit_Ring_DOL_Hybrid_Solution_without_Solvation_1
#C:\D+_tests\D+_Phase_1\GPU\No_Charges\V_54\Explicit_Ring_DOL_Hybrid_Solution_without_Solvation\Explicit_Ring_DOL_Hybrid_Solution_without_Solvation_2
#C:\D+_tests\D+_Phase_1\GPU\No_Charges\V_54\Explicit_Ring_DOL_Hybrid_Solution_without_Solvation\Explicit_Ring_DOL_Hybrid_Solution_without_Solvation_3
#C:\D+_tests\D+_Phase_1\GPU\No_Charges\V_54\Explicit_Ring_DOL_Hybrid_Solution_without_Solvation\Explicit_Ring_DOL_Hybrid_Solution_without_Solvation_4
#C:\D+_tests\D+_Phase_1\GPU\No_Charges\V_54\Explicit_Ring_DOL_Hybrid_Solution_without_Solvation\Explicit_Ring_DOL_Hybrid_Solution_without_Solvation_5
#C:\D+_tests\D+_Phase_1\GPU\No_Charges\V_54\Explicit_Ring_DOL_Hybrid_Solution_without_Solvation\Explicit_Ring_DOL_Hybrid_Solution_without_Solvation_6
#C:\D+_tests\D+_Phase_1\GPU\No_Charges\V_54\Explicit_Ring_DOL_Hybrid_Solution_without_Solvation\Explicit_Ring_DOL_Hybrid_Solution_without_Solvation_7
#C:\D+_tests\D+_Phase_1\GPU\No_Charges\V_54\Explicit_Ring_DOL_Hybrid_Solution_without_Solvation\Explicit_Ring_DOL_Hybrid_Solution_without_Solvation_8
#C:\D+_tests\D+_Phase_1\GPU\No_Charges\V_54\Explicit_Ring_DOL_Hybrid_Solution_without_Solvation\Explicit_Ring_DOL_Hybrid_Solution_without_Solvation_9
#C:\D+_tests\D+_Phase_1\GPU\No_Charges\V_54\Explicit_Ring_DOL_Hybrid_Solution_without_Solvation\Explicit_Ring_DOL_Hybrid_Solution_without_Solvation_10
#Average Chi square (Sigma units): 1.3987587118669
#Sigma Chi square: 0.28350153981074
#Calculation was done on GPU
q [nm^-1]	Intensity [A.U]	Sigma [A.U]
0.000000	22747798583.392117	6.3578287760416669e-006
0.006250	22653074099.508659	102500.52666203347
0.012500	22363091077.52359	411041.53655265429
0.018750	21884638727.158966	916279.48157465295
0.025000	21228855356.505352	1602951.5413382608
0.031250	20410878238.075756	2450552.2378041223
0.037500	19449371950.316555	3434236.8794768378
0.043750	18365953763.358456	4525905.5703506405
0.050000	17184530519.69125	5695424.1765400907
0.056250	15938241650.668356	5262455.0291735064
0.062500	14643251317.612736	6182475.5011976743
0.068750	13327563551.428188	7080245.1692213751
0.075000	12016870833.357838	7931229.3408044139
0.081250	10735481310.595789	8713116.1488504466
0.087500	9505664105.1921062	9406530.5343700033
0.093750	8347095135.5650129	9995613.305802552
0.100000	7276389240.4678669	10468467.023838511
0.106250	6305022528.5982285	6191447.8241551705
0.112500	5447550515.7964706	6160790.1079400545
0.118750	4706088627.1380253	6059292.743733285
0.125000	4082959431.4383912	5903147.009446431
0.131250	3576964129.6442657	5712452.3459856855
0.137500	3183643991.7387323	5509960.2875911593
0.143750	2895646160.7024875	5319030.8649150021
0.150000	2706739675.5695744	6273619.2851334633
0.156250	2598387906.1771345	6125616.8067548005
0.162500	2560447141.1003156	5965051.0121916486
0.168750	2578940514.4829874	5792848.0312571665
0.175000	2639567058.4147596	5607978.7572197011
0.181250	2728233819.9716463	5408119.2822350329
0.187500	2831544466.9905529	5190503.2289901748
0.193750	2937231791.9489717	4952805.8323990619
0.200000	3034516769.8631463	4693942.6386494013
0.206250	3112955162.5990772	5386968.9917870304
0.212500	3168963155.4985147	5363918.6249078633
0.218750	3195526454.0185499	5269298.2429318838
0.225000	3189696354.3198371	5111001.2392499419
0.231250	3150518795.7927375	4900329.1949582752
0.237500	3078889881.2387648	4651231.2742979499
0.243750	2977344547.7385545	4379413.7842246257
0.250000	2849794855.0111976	4101275.4196312591
0.256250	2703499273.4670043	3677157.9430687255
0.262500	2540099263.4036341	3635995.1567494976
0.268750	2367484374.609395	3635812.3741522152
0.275000	2191895570.0609255	3667935.8649021941
0.281250	2019362766.3095081	3719348.8481416763
0.287500	1855433962.7157261	3775494.6353847445
0.293750	1704942305.0745177	3822771.0479639797
0.300000	1572031780.3381844	2686108.5826712362
0.306250	1459452612.905292	2658874.2915770626
0.312500	1368927363.1235261	2634768.3314828956
0.318750	1301167387.6646051	2609685.2733885008
0.325000	1255807484.8943863	2580281.2879197886
0.331250	1231490815.5573547	2544118.6762712058
0.337500	1225995673.9078538	2499663.0502491193
0.343750	1236394282.243073	2446190.4688465768
0.350000	1259236382.9199028	2383658.262168861
0.356250	1290870736.8701313	2338553.5025108238
0.362500	1327345393.3636508	2238030.0437134206
0.368750	1364763347.5445857	2161543.4710603305
0.375000	1399537533.6807723	2104585.626592949
0.381250	1428481306.7439818	2061382.9218486412
0.387500	1448937017.432457	2026254.1465178442
0.393750	1458871469.6565037	1994725.8499430115
0.400000	1456935583.8174183	1964199.7593717771
0.406250	1442949562.8270631	1898902.8200147285
0.412500	1416170006.9539564	1859955.3325959272
0.418750	1377617348.4569762	1807804.5428869852
0.425000	1328571383.8672223	1745866.3588300166
0.431250	1270792533.3094006	1677624.5499176432
0.437500	1206405103.6012971	1606243.6597543668
0.443750	1137771760.1299205	1534224.7167421966
0.450000	1067362299.2923235	1463156.6048041331
0.456250	997919391.45954323	3059400.5055088159
0.462500	931279825.70738924	2985141.9173654001
0.468750	869644836.68373704	2916434.2487824871
0.475000	814737371.99536777	2851926.2802354451
0.481250	767876463.65715337	2790354.7325716498
0.487500	729933171.88922811	2730796.7969489396
0.493750	701311815.09437585	2672818.5709858136
0.500000	681953602.45744371	2616496.723110511
0.506250	671959592.88700557	1617338.3956203109
0.512500	669354850.09036064	1586747.0100732259
0.518750	673426575.19229949	1559313.8592247816
0.525000	682723617.93382418	1534877.1733671185
0.531250	695631581.92835498	1512707.5850818958
0.537500	710460770.43999457	1491638.951421302
0.543750	725533891.28968549	1470292.3819257894
0.550000	738952191.88208389	1542723.5261211656
0.556250	750031481.8661319	1475158.2587477877
0.562500	757172180.62635517	1423424.2375546193
0.568750	759463614.44469535	1386161.1359706928
0.575000	756300954.32765841	1361447.4093315101
0.581250	747398774.47861719	1347158.3925255151
0.587500	732788659.4015491	1341226.863387977
0.593750	712800155.34837341	1341758.7583063534
0.600000	687870933.90261614	685551.18092448707
0.606250	659239550.12870383	708898.35829068406
0.612500	627607675.68109608	735226.21131066908
0.618750	594076340.30161786	762829.83361228707
0.625000	559796858.52453279	789787.89746991533
0.631250	525912622.20184612	814167.56226692349
0.637500	493501328.5772686	834203.22623038443
0.643750	463523490.77363932	848430.07030278305
0.650000	436782400.96440685	855767.5524055307
0.656250	412904909.34600508	822924.80801188957
0.662500	394335907.32447243	856572.54259918211
0.668750	380198612.91186678	885069.06510734127
0.675000	370453881.01009655	906846.39500257932
0.681250	364857097.84681737	920920.0202367634
0.687500	362980062.44272512	926817.39692489011
0.693750	364242085.6700688	924497.56430509361
0.700000	367946366.02721536	914272.41690526647
0.706250	374404073.63087291	626179.77144106501
0.712500	380610224.69741166	633795.16061168315
0.718750	386877958.497302	641346.20767443464
0.725000	392457062.47831643	646701.6025814336
0.731250	396679381.01107854	648383.41197102726
0.737500	398987800.63261718	645636.23159839108
0.743750	398957818.19338208	638399.01322069962
0.750000	396311766.06590408	627211.88428658049
0.756250	390448935.60730207	506206.71968698851
0.762500	382355890.90286505	503974.93382171838
0.768750	371705936.70665157	499671.14805686363
0.775000	358791204.69571882	491668.10498659086
0.781250	344007689.50718731	478945.6078253559
0.787500	327830592.16055989	461041.99755381333
0.793750	310785993.44878435	437984.73083964112
0.800000	293421229.13115931	410220.38549201924
0.806250	276610724.83152735	550468.55068799667
0.812500	260128762.45470324	544527.81765825406
0.818750	244815435.21669483	536831.37218399742
0.825000	231045977.9219324	526961.41036906478
0.831250	219103864.66464734	514680.31435148657
0.837500	209172376.04073322	499967.3694203319
0.843750	201329902.48338619	483024.65998790582
0.850000	195279568.31074065	425186.51609157771
0.856250	191433844.14778644	417115.50201385189
0.862500	189323466.11687019	408702.91030515998
0.868750	188672843.93438894	400356.90447899094
0.875000	189153681.61493695	392482.05970662972
0.881250	190404298.51140428	385432.52436513844
0.887500	192049439.66154695	379471.09373835736
0.893750	193719810.59681267	374740.28158627305
0.900000	195070057.40253103	371250.90797745215
0.906250	195976654.42665064	431703.98507823597
0.912500	195777934.76360798	421658.92226299801
0.918750	194510665.86537069	412403.11520402582
0.925000	192053692.68497062	403309.97789509781
0.931250	188356844.15760189	393696.55464501143
0.937500	183439324.06530192	382919.92925853533
0.943750	177385103.91628262	370457.78757672413
0.950000	170335091.30356282	355962.69661836867
0.956250	162272005.34149942	177855.72863180531
0.962500	153806287.9456962	170112.37863979422
0.968750	144998559.52861857	162982.91534053971
0.975000	136101455.81688961	156597.26596384577
0.981250	127362955.536732	151089.99082102723
0.987500	119014053.38813901	146589.86795972497
0.993750	111258769.16920629	143202.88327665857
1.000000	104264927.15781438	140992.86790337463
1.006250	98141339.53944543	197990.94438353099
1.012500	92972516.658632427	187146.89415796133
1.018750	88805290.350235298	175410.17882869794
1.025000	85624778.886266202	163208.9374314493
1.031250	83373143.45474121	150987.35862995603
1.037500	81954534.322802857	139171.41794284072
1.043750	81242022.127480298	128131.02149191139
1.050000	81085577.447587445	118140.87101625858
1.056250	81322071.25497219	133779.23179370008
1.062500	81746904.277420819	125210.29994423954
1.068750	82224359.035439342	118239.73189450693
1.075000	82598422.30304043	112802.05240247067
1.081250	82731004.269480914	108663.70486359579
1.087500	82507550.637384742	105484.67580780522
1.093750	81841127.135578647	102901.00991500181
1.100000	80745736.579729527	78817.88354449255
1.106250	79023966.405559748	76437.021666736167
1.112500	76780429.176450863	74313.539805133885
1.118750	74048165.394349903	72413.534696306146
1.125000	70885084.787081137	70689.415205933867
1.131250	67369376.941796824	69089.09370240118
1.137500	63594406.97051917	67567.343512792417
1.143750	59663236.124389157	66097.77521433834
1.150000	55682650.95182842	64681.348766419913
1.156250	51685011.651976958	62787.71737786317
1.162500	47897282.737357691	62915.574391649585
1.168750	44353753.510254584	62858.324156136725
1.175000	41127600.154044986	62448.118106263231
1.181250	38274483.300682291	61541.523685183805
1.187500	35831319.661053263	60046.609660104106
1.193750	33815461.019017637	57939.653700138602
1.200000	32232646.481343526	51222.194932751998
1.206250	31034886.921454739	48547.446883918929
1.212500	30208165.047053259	46025.624099837543
1.218750	29704100.761639707	43764.923525082449
1.225000	29464572.678956192	41838.205706468689
1.231250	29425185.180486731	40271.397419878653
1.237500	29518771.433616985	39042.158560343873
1.243750	29678801.197003067	38090.177642459123
1.250000	29842494.89991004	37335.420584122759
1.256250	29965838.670871198	53435.098814855461
1.262500	29961701.7623794	56801.621891870724
1.268750	29819929.231644265	59412.587593601893
1.275000	29514790.869385559	61152.223532471864
1.281250	29032366.012192022	61986.130736546998
1.287500	28370304.440581955	61944.77933271115
1.293750	27537052.814183813	61109.088103481976
1.300000	26550628.588285249	59596.062349462714
1.306250	25407037.239169504	41689.103954931132
1.312500	24189235.417823084	40828.245678600164
1.318750	22913195.037827667	39777.392850819262
1.325000	21616845.222807206	38507.22499306086
1.331250	20337965.828220047	37025.241054612998
1.337500	19112213.764460541	35373.152949487565
1.343750	17971629.396241125	33621.948244928826
1.350000	16913780.319678277	30663.163455127964
1.356250	16015586.933833282	30029.484692069735
1.362500	15266104.012143677	29420.633408426693
1.368750	14672362.420508355	28888.996620505986
1.375000	14234530.037470087	28487.017187585614
1.381250	13946268.511987299	28258.534616163721
1.387500	13795443.002951842	28231.122987775612
1.393750	13765038.210167151	28410.768255619489
1.400000	13834236.542250341	28781.018720387201
1.406250	13974609.274427135	15553.602337085407
1.412500	14167613.220785666	16499.888085202172
1.418750	14386488.801823804	17343.865403445143
1.425000	14606865.201919174	18079.497828042371
1.431250	14806288.936625594	18713.452607774303
1.437500	14965016.938312137	19258.170378609761
1.443750	15066666.012104377	19726.551544973929
1.450000	15084870.942773852	34906.011718435984
1.456250	15036361.577448782	35239.600752683189
1.462500	14904865.700848311	35287.011409331033
1.468750	14689714.268483106	35045.856743418772
1.475000	14393825.603153173	34523.166138856977
1.481250	14023263.123978877	33734.056757955586
1.487500	13586706.794637227	32700.431903856206
1.493750	13094817.972095344	31449.494892082424
1.500000	12559661.346237075	30012.441989961979
1.506250	12020324.37440207	29992.696416795872
1.512500	11434235.677464036	27798.589657197917
1.518750	10842671.101064201	25561.022099919341
1.525000	10257266.573481679	23349.635531381075
1.531250	9688463.6997734718	21232.554692306101
1.537500	9145191.3072914854	19274.192994909936
1.543750	8634703.9579705521	17532.208271488533
1.550000	8162513.042584586	16052.817809807613
1.556250	7716456.5053839786	11298.745436830757
1.562500	7330450.6602668706	10496.88273233076
1.568750	6988560.962779576	10025.653407202721
1.575000	6690053.2018113937	9834.9247792554852
1.581250	6433185.440834011	9844.8852700268617
1.587500	6215445.423518532	9968.5798804814531
1.593750	6033835.6022029445	10130.328455748511
1.600000	5885093.924702418	10273.983788316715
1.606250	5769385.2760489937	10084.052553415184
1.612500	5673570.5422648136	9788.4103608666846
1.618750	5601114.495182978	9445.4540808627098
1.625000	5549724.0384519622	9064.7097912472236
1.631250	5517563.3569891006	8661.194003850198
1.637500	5503259.4818291496	8253.8793068491832
1.643750	5505867.07102565	7864.0899540493519
1.650000	5524801.7486175243	7513.3909296493202
1.656250	5562141.2412648704	6761.9378280176115
1.662500	5614030.4315277254	6596.585768637241
1.668750	5682342.7197723007	6501.9071081586444
1.675000	5767031.2051259559	6486.0117745405378
1.681250	5867854.0153964125	6548.8757543240426
1.687500	5984265.6399803618	6684.2321615568126
1.693750	6115345.0638773348	6882.4444630165281
1.700000	6261844.2223173436	10091.936808522318
1.706250	6422042.0375212254	10369.375428009722
1.712500	6592204.3023166824	10596.980355408634
1.718750	6769600.399695049	10768.352976250153
1.725000	6951123.3500698227	10881.839286053424
1.731250	7133367.8222998576	10939.319375163359
1.737500	7312726.3602078902	10944.956392826869
1.743750	7485515.6196962474	10904.15687669778
1.750000	7648076.2779259365	10822.581239399638
1.756250	7797059.1622096542	11343.599378000228
1.762500	7935899.3974001212	11635.785383571874
1.768750	8054964.1483507259	12002.891392795214
1.775000	8151843.0203449931	12437.228723279659
1.781250	8224700.4986071493	12924.424477469869
1.787500	8272344.1447139233	13444.816648337523
1.793750	8294257.2707084296	13975.079042066573
1.800000	8290609.9733922984	14489.859467881297
1.806250	8269284.126042773	8283.6064371634748
1.812500	8224346.6397714391	8780.4404155293887
1.818750	8157902.3836798947	9249.8690031141869
1.825000	8072566.5711383792	9668.4657879169627
1.831250	7971378.157197048	10017.374989760523
1.837500	7857683.2645232053	10282.539907779934
1.843750	7735031.2130767601	10454.867067350468
1.850000	7607048.6721330704	10530.398971304687
1.856250	7487896.818528248	12157.717610905911
1.862500	7365744.3131143022	12017.758653254641
1.868750	7248295.3285422251	11785.809636647185
1.875000	7138491.1912937732	11470.624482892496
1.881250	7038853.5797415208	11086.551557543811
1.887500	6951429.4242669214	10654.026705894383
1.893750	6877753.9810178299	10199.99041916233
1.900000	6818826.8810014483	9757.7617825044472
1.906250	6780513.5348678408	9770.9104977369443
1.912500	6758125.1406481639	9934.4910241720117
1.918750	6750462.2130638408	10051.065655575647
1.925000	6756612.5895881057	10108.964536576337
1.931250	6775284.2732224362	10100.294912432615
1.937500	6804874.4368725866	10020.798095719467
1.943750	6843544.9467772497	9869.6689833017335
1.950000	6885277.4211304653	12884.406527826051
1.956250	6941255.8913036035	13416.831558879769
1.962500	6999995.2415289357	13916.700738911497
1.968750	7059490.4454764742	14375.647262826551
1.975000	7117857.7223049197	14784.854098636315
1.981250	7173382.7975273458	15135.088881177709
1.987500	7224557.9302114369	15417.148872073647
1.993750	7270111.8455372583	15622.43580887198
2.000000	7309018.2026400538	15743.776615137918
2.006250	7350775.292420174	14134.353022133999
2.012500	7379889.9947741609	14328.71551825319
2.018750	7400459.5676358538	14535.396262457694
2.025000	7412414.9282137528	14748.782976444934
2.031250	7415870.8357790308	14961.898212779786
2.037500	7411098.2085160734	15166.033622413664
2.043750	7398488.1732149217	15350.544592141774
2.050000	7378522.1366548538	15503.010635691058
2.056250	7353490.1849816591	11646.023010920184
2.062500	7325284.918545628	11705.115850921979
2.068750	7291198.9612217117	11704.273995117892
2.075000	7251843.2032339154	11630.088049941793
2.081250	7207813.7581232386	11475.454287778401
2.087500	7159672.6946970318	11240.877207714919
2.093750	7107957.9778207783	10935.615064092139
2.100000	7053171.9223268973	10578.325577602809
2.106250	7008355.1666225968	11266.998813050597
2.112500	6953465.4234283473	11079.25851738912
2.118750	6896675.1742905285	10865.584090538001
2.125000	6838450.5710061816	10620.100888511433
2.131250	6779253.0794276791	10341.073090175449
2.137500	6719550.4534967961	10031.994516576618
2.143750	6659825.4258653522	9702.1659740340219
2.150000	6592670.6037850324	5453.8112285862562
2.156250	6539144.8091259748	5557.755556701818
2.162500	6486851.3524982957	5726.8981768538315
2.168750	6436262.552325028	5956.488469194006
2.175000	6387819.4746104153	6239.8101840205327
2.181250	6341901.3925346788	6568.9101811284454
2.187500	6298822.5104285758	6935.0298890869371
2.193750	6258801.5658864696	7328.9796922538089
2.200000	6220471.9415392503	14865.148717115602
2.206250	6191761.0105290292	14886.189580229957
2.212500	6165832.4139481634	14820.025352017065
2.218750	6142392.8185941782	14661.713143332285
2.225000	6121009.8356445115	14409.439032006258
2.231250	6101121.6873698365	14065.132553586071
2.237500	6082051.4102121238	13635.087514931494
2.243750	6063019.6108964048	13130.316586590441
2.250000	6043173.7216257714	12567.072680811703
2.256250	6020836.0945913689	9415.7713317301004
2.262500	5999935.0165968109	9422.1520298560099
2.268750	5975305.1611668989	9357.4638123324185
2.275000	5946087.5262544472	9216.1755862320024
2.281250	5911510.5889200624	8997.7722710532726
2.287500	5870915.4500098648	8706.8898159951605
2.293750	5823787.1600273317	8353.3522404000541
2.300000	5769785.3275653711	7952.1156746062188
2.306250	5714237.5355698019	11117.157067063996
2.312500	5649134.6929385392	11024.967783380729
2.318750	5576976.7995771067	10898.514057781715
2.325000	5498208.5631414531	10733.989962816704
2.331250	5413472.4817939755	10529.827964116714
2.337500	5323567.8105077203	10286.947626296689
2.343750	5229449.9597696019	10008.873092358328
2.350000	5132174.9661706127	9701.5590944783835
2.356250	5034295.7984259771	9050.9048972330529
2.362500	4935759.7756898673	8776.4750242124537
2.368750	4837264.9369890355	8499.3904841566764
2.375000	4739961.0022451049	8231.4776265591991
2.381250	4644902.6911501326	7982.2337344613352
2.387500	4553026.1734719854	7757.8884451693002
2.393750	4465128.8715267209	7561.0094559613462
2.400000	4383345.7907325178	8420.4012496684882
2.406250	4307416.2320194524	8611.9556240497768
2.412500	4236469.0697998609	8751.7112203883116
2.418750	4170542.7610639022	8835.8722755375657
2.425000	4109491.6393028786	8863.2793766134946
2.431250	4052982.6009091274	8834.8628411200298
