#List of files for average calculation
#C:\Lea\runGPU\100nmRod_MC\100nmRod_MC_1
#C:\Lea\runGPU\100nmRod_MC\100nmRod_MC_2
#C:\Lea\runGPU\100nmRod_MC\100nmRod_MC_3
#C:\Lea\runGPU\100nmRod_MC\100nmRod_MC_4
#C:\Lea\runGPU\100nmRod_MC\100nmRod_MC_5
#C:\Lea\runGPU\100nmRod_MC\100nmRod_MC_6
#C:\Lea\runGPU\100nmRod_MC\100nmRod_MC_7
#C:\Lea\runGPU\100nmRod_MC\100nmRod_MC_8
#C:\Lea\runGPU\100nmRod_MC\100nmRod_MC_9
#C:\Lea\runGPU\100nmRod_MC\100nmRod_MC_10
#Average Chi square (Sigma units): 1.3264452989101
#Sigma Chi square: 0.21974395626817
#Calculation was done on GPU
q [nm^-1]	Intensity [A.U]	Sigma [A.U]
0.000000	443046541.56490135	0
0.006250	439080611.96905297	2584.3784988342345
0.012500	424343753.04461199	8981.923578318585
0.018750	401003474.27650595	23332.118759785746
0.025000	371541889.93449038	44484.00990891824
0.031250	339135058.58384478	43555.603925901283
0.037500	307138122.62971973	66060.550575421585
0.043750	275137935.42916662	88917.472699714737
0.050000	245970112.00434867	108615.02058365649
0.056250	221109077.21367764	123085.01973192519
0.062500	200538320.38208365	84880.664990308243
0.068750	183057096.14629957	83661.654910424666
0.075000	168364742.0632953	80902.553657769764
0.081250	156235974.53944999	77603.124598002047
0.087500	146167813.90343577	74547.174324809443
0.093750	137730571.34290284	82022.692542184304
0.100000	130306569.80605872	84700.660847669511
0.106250	123316521.411498	87178.99263860262
0.112500	116779388.34933782	89212.898420521247
0.118750	110726094.95299383	90581.781924788927
0.125000	105368505.59614153	55013.728788353415
0.131250	100350606.01218374	53673.728574276371
0.137500	95739577.674505964	52646.507148253091
0.143750	91637507.366811007	51891.490135267653
0.150000	87992451.491368487	51351.208448601436
0.156250	84787609.657262087	74400.418705653035
0.162500	81718764.595394284	72937.774008351698
0.168750	78795263.749811918	71521.979662170561
0.175000	76036089.414321154	70159.501889021471
0.181250	73414150.342808336	68848.136182648435
0.187500	71003437.689775601	71416.012920861627
0.193750	68655248.210588321	70674.713993767247
0.200000	66454608.515845299	70001.685736199826
0.206250	64436709.172121905	69312.706402418829
0.212500	62539975.529533997	64109.116760593817
0.218750	60839395.217058815	63892.528263314001
0.225000	59180550.002676859	63676.325188315583
0.231250	57594364.08644639	63413.063589647609
0.237500	56080803.8845134	63086.956214951293
0.243750	54632155.77070348	48225.324966326632
0.250000	53246792.868996397	47866.731557388986
0.256250	51889628.929113194	47423.732992631572
0.262500	50606986.754342258	46942.348762756068
0.268750	49406441.825019881	46487.903960048694
0.275000	48271904.219719835	19439.846141688718
0.281250	47207120.998545781	19198.632795467434
0.287500	46169844.658948191	18889.084398040104
0.293750	45175547.229061671	18520.209635963674
0.300000	44215386.930325083	18104.636696247639
0.306250	43302347.3899405	41313.277440416903
0.312500	42397448.935042635	41061.76910246777
0.318750	41513749.233571261	40826.991145720502
0.325000	40673489.091415763	40606.8797186706
0.331250	39872872.11636921	40400.433596657058
0.337500	39117210.456084676	52189.649961625422
0.343750	38385892.52587077	51634.804788398229
0.350000	37675813.698950313	51148.764895396191
0.356250	36992824.635345832	50735.355017387323
0.362500	36324533.334726706	50392.524677868008
0.368750	35683388.578531168	38951.529756359058
0.375000	35044104.259459019	38699.131330215037
0.381250	34421987.265599273	38439.96271282505
0.387500	33826640.244708553	38189.698694421262
0.393750	33249537.324205022	37963.092549138615
0.400000	32702716.260115355	43648.267425661616
0.406250	32168094.438645564	43575.699675782394
0.412500	31650510.511476092	43513.439613961222
0.418750	31150002.101459313	43419.521867136078
0.425000	30668026.426646668	23862.598946891718
0.431250	30192999.746357419	23643.786802810668
0.437500	29717057.950328194	23396.36601619167
0.443750	29255035.068371832	23141.192095197166
0.450000	28809426.856954794	22902.836271748489
0.456250	28372351.610533327	29419.859937118999
0.462500	27958161.436912376	28895.528989657119
0.468750	27549754.858802088	28352.507582850903
0.475000	27154932.921275925	27804.66266269796
0.481250	26770220.219464969	27267.495187028471
0.487500	26418360.9118619	22695.569970051649
0.493750	26046758.644546717	22514.621071413287
0.500000	25677733.654938865	22344.281245400714
0.506250	25319674.276719414	22192.280156375593
0.512500	24970995.046843093	22063.331359230728
0.518750	24601347.732751869	20685.253862428257
0.525000	24272345.768155742	20416.551048052072
0.531250	23950079.556363679	20186.373958198979
0.537500	23638287.320260063	19965.203761441389
0.543750	23331488.742598455	19725.567195748878
0.550000	23049449.117509797	46201.720707991481
0.556250	22750774.269936554	45826.849517692048
0.562500	22456298.775989473	45446.447531795355
0.568750	22170046.631000839	45059.437418926587
0.575000	21888081.355716504	44666.162513414667
0.581250	21621988.908758089	44425.265916945398
0.587500	21353670.480991952	44090.196035574096
0.593750	21092180.329729684	43764.037040194904
0.600000	20838339.831956696	43443.006310445737
0.606250	20582323.413806416	18022.379443107962
0.612500	20339076.050095018	17996.775758366155
0.618750	20093423.031809535	17952.844837202887
0.625000	19852449.564514283	17905.212090132107
0.631250	19617207.857921384	17866.911430820724
0.637500	19381891.964732822	23328.524760521817
0.643750	19157732.218002178	23199.282103460726
0.650000	18934787.159465365	23086.436508019622
0.656250	18718213.556654774	22977.793471368645
0.662500	18506807.585449118	22859.363213960278
0.668750	18295022.07720957	32642.142902933614
0.675000	18089532.785659026	32397.727785257186
0.681250	17884177.815601815	32138.884666181799
0.687500	17683273.071402449	31879.810049653101
0.693750	17485811.509014077	31634.487620059554
0.700000	17304961.740593784	31062.167285916581
0.706250	17114028.023498416	30819.391734389526
0.712500	16925712.143401928	30590.185563950879
0.718750	16742895.771505024	30367.752413981267
0.725000	16562961.634045344	30145.520517557976
0.731250	16382650.402773861	35159.196273137968
0.737500	16206563.467057625	34910.635651272489
0.743750	16032041.677238232	34653.134591010457
0.750000	15861301.53208828	34395.745267772123
0.756250	15691998.955302145	34147.629443128004
0.762500	15511417.442417722	18330.486947808364
0.768750	15347106.842156079	18281.007069528117
0.775000	15186123.159583624	18235.9353865513
0.781250	15029556.305132996	18200.61573059898
0.787500	14873864.790013444	18177.341261807222
0.793750	14744086.783079872	28448.498123153604
0.800000	14591480.342360038	28312.646862912909
0.806250	14441168.176092351	28166.753767779948
0.812500	14293740.503829788	28021.697256698608
0.818750	14134034.051197251	21306.795349784297
0.825000	13991289.64018012	21144.203600615725
0.831250	13848312.614726979	20986.558968086127
0.837500	13708816.187401652	20829.329747920961
0.843750	13572549.59231171	20667.228063458871
0.850000	13445720.76465115	21329.42933663027
0.856250	13312814.760749165	21195.554355036686
0.862500	13179686.314531077	21069.278651199093
0.868750	13049051.97333857	20945.844572244838
0.875000	12920245.927639311	20819.893740752399
0.881250	12774882.313227851	14742.654121942305
0.887500	12648595.848495258	14643.226355170793
0.893750	12523278.636914451	14544.230197676749
0.900000	12401238.457228698	14444.109493982907
0.906250	12281215.308953773	14341.4445760458
0.912500	12177263.821347762	22017.697111969526
0.918750	12059220.31568021	21852.49237290235
0.925000	11942029.304081295	21678.900037173811
0.931250	11827168.271597838	21507.606638382742
0.937500	11713088.151017159	21348.988059054915
0.943750	11597270.070238788	15303.792044559752
0.950000	11484795.613534762	15233.379658980415
0.956250	11374012.923659191	15169.360243588109
0.962500	11266043.411755225	15103.742505840522
0.968750	11158899.470021302	15027.936451807587
0.975000	11064866.062983194	16811.889132683835
0.981250	10959427.58873426	16712.543556260396
0.987500	10855454.453347735	16614.542372585511
0.993750	10753397.409655116	16517.569348845085
1.000000	10651098.247488167	16420.534886588463
1.006250	10536891.903368253	16853.819733423872
1.012500	10436491.475589301	16734.703949205374
1.018750	10338116.409645896	16614.499657313765
1.025000	10241925.955210855	16497.542029529966
1.031250	10152485.373799391	15726.003337488444
1.037500	10058422.535474706	15639.745686529703
1.043750	9964128.5893905852	15568.931704798619
1.050000	9871565.4760711733	15501.107996770694
1.056250	9780328.9710750096	15423.362102140291
1.062500	9684282.6927569695	24310.713304076853
1.068750	9593892.7652538735	24086.750018673061
1.075000	9503726.9775412697	23847.969447217067
1.081250	9415624.1026640665	23609.689398222701
1.087500	9328997.2737510093	23385.584575384859
1.093750	9251061.3048480451	19266.039848791283
1.100000	9165638.3377731498	19132.779815620339
1.106250	9080793.3689953871	18999.894798644855
1.112500	8997663.1759081725	18868.652512300134
1.118750	8915203.3476292845	18739.75331452024
1.125000	8835628.6710064672	11656.583339743418
1.131250	8753506.6373306978	11520.934525483744
1.137500	8672248.5153033081	11376.353227572052
1.143750	8592868.207627872	11232.790823879071
1.150000	8514208.6632833742	11099.503173389941
1.156250	8428369.3800434265	22878.768051462426
1.162500	8350825.0465039192	22817.070309973162
1.168750	8274361.8108310718	22772.297296048881
1.175000	8199388.7368037328	22720.326833679796
1.181250	8124384.5112179797	22637.414944007676
1.187500	8059736.7993395878	7222.2698809309813
1.193750	7985131.0594604537	7151.1848871273869
1.200000	7911754.8134040069	7076.1682543649486
1.206250	7839912.8415654702	7005.2089629533066
1.212500	7758587.7795168161	8667.9671074702219
1.218750	7688256.280895086	8613.2850126556332
1.225000	7617684.0188237233	8540.3230654820054
1.231250	7548429.8778194282	8460.3913321210239
1.237500	7480313.9593283515	8385.3666264524181
1.243750	7418103.1583758518	12218.828079806095
1.250000	7350301.936572725	12161.074923895831
1.256250	7282423.2664738568	12103.820444952466
1.262500	7215900.4849438444	12047.1789917591
1.268750	7150464.2161895437	11990.7141881768
1.275000	7088709.9863198726	11548.064221145385
1.281250	7023995.5466580587	11444.225240492935
1.287500	6959675.3768786639	11336.512625271098
1.293750	6896714.0474251108	11228.779048966302
1.300000	6834439.995112312	11124.241106121865
1.306250	6768068.4126539435	10114.533323655782
1.312500	6705813.4724320639	10059.837913465419
1.318750	6644015.7265724223	9995.6406348081036
1.325000	6583524.8067139573	9930.1333705953857
1.331250	6523630.0457378123	9871.7256556765369
1.337500	6467019.4634033032	11001.210389298903
1.343750	6407576.7577008074	10926.37985950268
1.350000	6348938.7224300932	10850.088811059397
1.356250	6291539.001777201	10773.62940890065
1.362500	6234332.8804620523	10697.641580562109
1.368750	6171696.4013165375	16181.592570739307
1.375000	6114515.4942206023	16083.724919737606
1.381250	6058115.1930877231	15986.371493219716
1.387500	6002838.8674021214	15889.122944918727
1.393750	5947656.8268657895	15791.557465892764
1.400000	5899096.6820439715	6872.360415957558
1.406250	5844531.5005235951	6851.9473420609511
1.412500	5790989.0533477198	6833.4839210670016
1.418750	5738452.8594805077	6812.9148186781022
1.425000	5681064.5337031987	14653.663695597543
1.431250	5628824.7695769221	14597.060168485401
1.437500	5576395.1000831844	14556.121956705958
1.443750	5524904.2339776512	14517.842571514611
1.450000	5474252.3423202978	14469.289440241057
1.456250	5422945.7788734687	12656.637501602534
1.462500	5372673.3574308157	12576.636932869984
1.468750	5322640.5932330955	12494.130024449476
1.475000	5273697.606136268	12410.969846385489
1.481250	5225448.7163476944	12328.876617161455
1.487500	5187959.154970469	12592.392241791949
1.493750	5139519.5622971831	12528.221706237839
1.500000	5091333.3493215321	12473.273055269903
1.506250	5044101.3904890064	12419.573333888262
1.512500	4997374.2689016396	12358.443509980911
1.518750	4943793.0686804159	7499.2710304880111
1.525000	4897274.5508902278	7448.5823208165484
1.531250	4851334.5247018533	7398.0725364564751
1.537500	4806426.4673744868	7349.2060368388329
1.543750	4761859.5573627111	7303.0433685562321
1.550000	4718679.8140365649	12878.06595359251
1.556250	4674002.3875714317	12768.61910726444
1.562500	4629861.836362144	12656.141014836678
1.568750	4586575.297234674	12545.41108800345
1.575000	4543428.974670006	12440.813015674485
1.581250	4501660.3925299887	10543.98568769695
1.587500	4458714.5135227544	10486.377180165604
1.593750	4416546.1140980041	10433.744370679799
1.600000	4375255.9880515281	10379.794272368074
1.606250	4328953.0244389344	11272.995825890323
1.612500	4288013.7793864617	11204.876840852436
1.618750	4246884.4382271934	11131.394130663582
1.625000	4206449.0766645353	11056.099843658172
1.631250	4166684.230437018	10982.556106954835
1.637500	4127736.6157755689	4620.0750962553366
1.643750	4088104.2408683025	4570.6925151132682
1.650000	4048574.0774402604	4517.2681224431008
1.656250	4009899.6035777726	4463.7324636875937
1.662500	3971887.125082782	4413.3140027562413
1.668750	3931680.6678348756	4843.6858199178641
1.675000	3893650.2489287304	4829.179221381929
1.681250	3855775.0666869469	4823.2091896841002
1.687500	3818632.8071413711	4818.0630407547387
1.693750	3781934.6837770022	4805.8862879692979
1.700000	3746610.3699579472	6938.425856912645
1.706250	3709857.7842384437	6889.1825333214192
1.712500	3673490.9313010178	6840.912172784796
1.718750	3637962.0760092288	6793.8751973540448
1.725000	3602840.5748768523	6747.7365192803381
1.731250	3567924.85720836	6922.41927886131
1.737500	3532730.707389398	6848.9242902932383
1.743750	3497937.9689529948	6775.1395186798909
1.750000	3463832.3795380993	6702.5400148181288
1.756250	3429908.3097556336	6632.4659767074136
1.762500	3397113.1897223964	7917.4771121433578
1.768750	3363111.311086975	7832.2170675834896
1.775000	3329673.6039125067	7744.9297965542737
1.781250	3296981.2394614094	7660.541114807108
1.787500	3264426.8173169862	7583.4214471793521
1.793750	3232034.1416221503	4384.1863346569053
1.800000	3199551.1681286329	4344.0280677038254
1.806250	3167610.411442644	4305.2453514653816
1.812500	3136238.3601642223	4266.8816899704125
1.818750	3105743.4027932417	5494.1033584459492
1.825000	3074421.928234017	5443.606096355049
1.831250	3043106.9208919937	5394.1250256699095
1.837500	3012446.3386442787	5345.5631050535176
1.843750	2982374.4041934982	5297.46372645874
1.850000	2955402.5834273035	7286.0463953302669
1.856250	2925347.4306847705	7221.2031305640567
1.862500	2895407.2906754934	7154.3160369042926
1.868750	2866060.3658811287	7088.1800925662774
1.875000	2837119.5581004964	7025.1897322825725
1.881250	2805641.2779717101	5710.1843762704111
1.887500	2776573.3630594341	5660.7674016903302
1.893750	2747747.3793383143	5611.7147308882913
1.900000	2719581.3094579363	5563.7905054887069
1.906250	2691818.8986233827	5517.2603292421536
1.912500	2657787.8135322654	5959.0024475800747
1.918750	2630043.1633358775	5923.9638044902449
1.925000	2602612.5169619992	5891.7271181747847
1.931250	2575756.1260659397	5859.3666534190897
1.937500	2549117.0364796054	5823.979707866979
1.943750	2525907.7638684125	5597.4324392309081
1.950000	2499087.4321905528	5536.1468274933941
1.956250	2472669.8238784848	5472.73587520615
1.962500	2446854.8568597478	5411.3644008413512
1.968750	2421232.6806816524	5355.7958814783597
1.975000	2397037.5629685437	4558.7674366360452
1.981250	2371414.8154330561	4530.1537798131785
1.987500	2346229.5869313134	4505.2768230545107
1.993750	2321544.0176977678	4478.5023043360006
2.000000	2296872.7402715329	4444.1129972707095
2.006250	2270830.0767747392	4107.7575649730015
2.012500	2246131.9008052498	4068.019789179803
2.018750	2221919.83785216	4028.8422671929256
2.025000	2198208.5798954954	3990.3795246695145
2.031250	2176774.5732746185	4573.8092044231344
2.037500	2153140.7448296589	4520.0746959949338
2.043750	2129593.3346542874	4462.6046664706373
2.050000	2106539.1931829443	4404.3517597929813
2.056250	2083868.6367028125	4348.1374796984937
2.062500	2061726.6278752468	3989.733105512591
2.068750	2038910.4565099981	3949.5744474425283
2.075000	2016238.8658345309	3909.0687404662849
2.081250	1994075.5896060143	3869.1759435512781
2.087500	1972274.600434762	3830.5169120450282
2.093750	1950314.5641758845	2474.7331367156335
2.100000	1928491.7527723615	2444.7432029547963
2.106250	1906921.4430425875	2413.9952417646423
2.112500	1885839.865176117	2383.6305627645738
2.118750	1864997.2137940419	2354.5447784278622
2.125000	1844389.6802261528	3739.8120427458266
2.131250	1823378.0944842461	3693.3666559531043
2.137500	1802648.1975690096	3644.9292718005258
2.143750	1782395.3988324949	3597.6893852717717
2.150000	1762348.0761750103	3554.4636389051639
2.156250	1741700.3682724093	2971.776924724315
2.162500	1721636.8148345873	2933.5876137300688
2.168750	1701929.1250802528	2896.5099511776643
2.175000	1682660.2494228382	2860.237639305803
2.181250	1663475.7380336621	2824.1863811981034
2.187500	1643176.166586013	2758.035399300511
2.193750	1623902.6853129547	2740.9379859617488
2.200000	1604987.7406951191	2724.9488035586055
2.206250	1586482.3005911647	2707.5135663721608
2.212500	1569095.1976616245	2573.6464838436791
2.218750	1550673.0006061785	2555.2532387860301
2.225000	1532310.005968031	2540.6851016254964
2.231250	1514354.91385544	2527.179772368449
2.237500	1496755.6156326267	2511.9340193243806
2.243750	1478222.1751096663	2290.9845970104634
2.250000	1460541.5540880268	2267.1253843771042
2.256250	1442939.0628489309	2244.3711657478407
2.262500	1425723.5694487405	2222.2618951524883
2.268750	1408820.632742692	2200.1627113518261
2.275000	1391916.2990837314	3572.9174860258395
2.281250	1374982.6448476429	3535.8194201477399
2.287500	1358240.8049694872	3500.2468519647841
2.293750	1341911.7106872401	3465.113440068707
2.300000	1325833.9879255041	3429.2550683606964
2.306250	1310216.9801806787	6943.9501712534293
2.312500	1293983.6321956962	6869.5408333027735
2.318750	1277943.8759026732	6796.2105383406079
2.325000	1262279.6709396068	6723.0380547549048
2.331250	1246816.7212293504	6649.2068981016446
2.337500	1230101.6758672595	4449.6902086521995
2.343750	1214618.6376352881	4393.7546032883311
2.350000	1199416.7324162647	4338.3663864354721
2.356250	1184595.8524206853	4283.7460604869302
2.362500	1169907.139439519	4229.9365704604197
2.368750	1157304.6769490256	2011.2693658150765
2.375000	1142487.3638863016	2000.0789296305388
2.381250	1127936.3891898904	1991.0506495942407
2.387500	1113715.9557226989	1981.0143980529851
2.393750	1099574.0036471991	1966.7379154558864
2.400000	1084223.6904062375	2532.4880668733758
2.406250	1070113.4665760701	2502.4483667055579
2.412500	1056330.4969934453	2472.0955354097705
2.418750	1042870.7069436148	2441.7287243391311
2.425000	1028185.5369476076	2333.3860764428332
2.431250	1014718.0014470501	2304.1410234577293
2.437500	1001295.7922164848	2275.3280716585909
2.443750	988171.45764227805	2246.9469580073292
2.450000	975309.0066870416	2218.9053273467689
2.456250	963573.10176068672	1996.4947379177806
2.462500	950659.37867441587	1972.0467956276068
2.468750	937880.37532518059	1948.7959301393039
2.475000	925440.00829214486	1925.5546085202138
2.481250	913244.53846215201	1901.2787422255938
2.487500	901172.26848065353	1986.1326627625583
2.493750	888879.94908473699	1960.12901167054
2.500000	876728.03345741925	1934.3290677964708
2.506250	864873.08349251631	1908.7605809873205
2.512500	853199.32181343506	1883.3784474316531
2.518750	840739.65475370153	1578.4782241647483
2.525000	829011.04056455323	1556.6840955290957
2.531250	817493.41236241662	1534.3260325222973
2.537500	806296.75629354094	1512.2252906223191
2.543750	795256.03555602627	1491.1574364005112
2.550000	785868.19707582763	2080.7637317050803
2.556250	774729.16483203857	2054.4066095583016
2.562500	763793.38540403405	2027.9713750234662
2.568750	753126.51076358184	2001.8128355387614
2.575000	742548.76052413718	1976.1981131386781
2.581250	731347.49004172464	1178.5427196807852
2.587500	720743.84238672745	1162.8961459938
