#List of files for average calculation
#C:\D+_tests\Symmetry\GPU\WH\Scripted_Symmetry_Implicit_No_Charges_With_Hydration_Hybrid_VEGAS\Scripted_Symmetry_Implicit_No_Charges_With_Hydration_Hybrid_VEGAS_1
#C:\D+_tests\Symmetry\GPU\WH\Scripted_Symmetry_Implicit_No_Charges_With_Hydration_Hybrid_VEGAS\Scripted_Symmetry_Implicit_No_Charges_With_Hydration_Hybrid_VEGAS_2
#C:\D+_tests\Symmetry\GPU\WH\Scripted_Symmetry_Implicit_No_Charges_With_Hydration_Hybrid_VEGAS\Scripted_Symmetry_Implicit_No_Charges_With_Hydration_Hybrid_VEGAS_3
#C:\D+_tests\Symmetry\GPU\WH\Scripted_Symmetry_Implicit_No_Charges_With_Hydration_Hybrid_VEGAS\Scripted_Symmetry_Implicit_No_Charges_With_Hydration_Hybrid_VEGAS_4
#C:\D+_tests\Symmetry\GPU\WH\Scripted_Symmetry_Implicit_No_Charges_With_Hydration_Hybrid_VEGAS\Scripted_Symmetry_Implicit_No_Charges_With_Hydration_Hybrid_VEGAS_5
#C:\D+_tests\Symmetry\GPU\WH\Scripted_Symmetry_Implicit_No_Charges_With_Hydration_Hybrid_VEGAS\Scripted_Symmetry_Implicit_No_Charges_With_Hydration_Hybrid_VEGAS_6
#C:\D+_tests\Symmetry\GPU\WH\Scripted_Symmetry_Implicit_No_Charges_With_Hydration_Hybrid_VEGAS\Scripted_Symmetry_Implicit_No_Charges_With_Hydration_Hybrid_VEGAS_7
#C:\D+_tests\Symmetry\GPU\WH\Scripted_Symmetry_Implicit_No_Charges_With_Hydration_Hybrid_VEGAS\Scripted_Symmetry_Implicit_No_Charges_With_Hydration_Hybrid_VEGAS_8
#C:\D+_tests\Symmetry\GPU\WH\Scripted_Symmetry_Implicit_No_Charges_With_Hydration_Hybrid_VEGAS\Scripted_Symmetry_Implicit_No_Charges_With_Hydration_Hybrid_VEGAS_9
#C:\D+_tests\Symmetry\GPU\WH\Scripted_Symmetry_Implicit_No_Charges_With_Hydration_Hybrid_VEGAS\Scripted_Symmetry_Implicit_No_Charges_With_Hydration_Hybrid_VEGAS_10
#Average Chi square (Sigma units): 1.3781382754722
#Sigma Chi square: 0.30979255206237
#Calculation was done on GPU
q [nm^-1]	Intensity [A.U]	Sigma [A.U]
0.000000	62833252731.897842	1.219643026558614e-005
0.006250	62893983371.995827	95067.547290211456
0.012500	62827981885.441589	719357.64293964487
0.018750	62641721156.973526	801153.47300715325
0.025000	62339368748.406113	473914.54658659513
0.031250	61922039477.513184	979853.65095073904
0.037500	61391425821.615906	1291352.2527035351
0.043750	60745981310.927841	3285128.2784543531
0.050000	59986314324.81337	2144914.8072680631
0.056250	59105839435.774002	5009554.3641145322
0.062500	58114501813.108643	1525345.6847898981
0.068750	57078890381.676224	751846.86508918589
0.075000	56075861097.712692	6533345.9641382834
0.081250	54964701177.175743	3393498.5311925611
0.087500	53752621073.081146	1116009.8513514078
0.093750	52450567752.024452	4284464.0578134768
0.100000	51074701115.414291	4826101.0028514685
0.106250	49630473919.573502	12360368.616857473
0.112500	48137312747.319565	6017749.7845304077
0.118750	46597544832.280594	3057917.6488595158
0.125000	45010303636.23735	12724412.699528625
0.131250	43402242710.950279	3738604.0130084492
0.137500	41863203291.379723	4807630.9639179241
0.143750	40341214026.135818	4852866.4877093351
0.150000	38800727638.681282	4821813.4305650787
0.156250	37246052017.771111	12048211.468428899
0.162500	35700728947.510231	5777726.7385024391
0.168750	34163111196.049461	5056302.1254005004
0.175000	32643256517.937279	5166157.9744181857
0.181250	31146592832.941338	6815910.6670561377
0.187500	29680428508.883598	7362771.6201629434
0.193750	28248661005.491199	5443488.7218802376
0.200000	26852162044.940945	5505981.4993552314
0.206250	25576817921.930363	3764275.9723251755
0.212500	24328992237.748135	4519799.0984892007
0.218750	23116137152.839302	6084499.1715397388
0.225000	21941723760.700569	8108385.83723523
0.231250	20813524897.42841	6226713.9672641987
0.237500	19726718639.819866	4713516.9837563373
0.243750	18685243349.321083	4322558.6019251635
0.250000	17688407068.282661	4160657.354173745
0.256250	16737384375.412806	3991766.5749024833
0.262500	15829758738.229437	4052075.4687152067
0.268750	14974243770.850155	4701102.2340448452
0.275000	14187006139.719381	4551875.5055525238
0.281250	13435974624.78474	4395168.1104173902
0.287500	12720810700.965734	4838750.1899594944
0.293750	12042101393.042595	4711805.4775018673
0.300000	11398240949.616976	3780400.5406040624
0.306250	10786636533.999575	4548098.891652409
0.312500	10208516195.733019	5328340.1426102947
0.318750	9661051926.2460823	4141140.5250380817
0.325000	9141771636.7686672	3202094.1897258307
0.331250	8648935680.5953693	3776571.2168101203
0.337500	8193066255.5733891	7062063.9273407068
0.343750	7765928038.3752699	6791755.326037433
0.350000	7359146672.0684261	6576064.5061014276
0.356250	6971390225.5691853	6015347.8099767845
0.362500	6601546447.2128315	6253565.7766788071
0.368750	6248057225.5365782	5884920.0130397575
0.375000	5911345567.1741047	5479585.5721324673
0.381250	5589137398.9937382	4981862.8461159309
0.387500	5281164579.6439266	4742768.955852828
0.393750	4986060412.7272396	4277463.0239146696
0.400000	4703389388.9317493	3947495.141413263
0.406250	4442252608.7982607	2717214.0657519205
0.412500	4190979336.3988657	2682548.2212250088
0.418750	3948517817.0019655	3139701.3167002625
0.425000	3715727310.8989615	3145652.3778832881
0.431250	3491908210.6873217	2813209.5328385914
0.437500	3276543201.6778212	2980198.0635585724
0.443750	3070753617.858767	3051782.8762447694
0.450000	2873051593.5551486	3492212.6799716414
0.456250	2684606582.8024302	2867161.4584009219
0.462500	2504903772.9964266	2859494.8584950082
0.468750	2335084520.148716	1841002.0078116658
0.475000	2176476225.657063	1585435.1891256496
0.481250	2025635915.058984	1884117.8152284725
0.487500	1882470152.8279309	1763663.2640517158
0.493750	1746490885.6836021	1508615.9043151247
0.500000	1618807012.3163073	1392892.7233874896
0.506250	1498525092.5095773	1260073.1010225946
0.512500	1385801373.535821	1396962.5443229
0.518750	1280604136.0021558	1235956.0552578326
0.525000	1183176080.9765434	1043042.0893706953
0.531250	1092609270.1653461	948599.13601152052
0.537500	1009246814.2079004	803268.2920420575
0.543750	933728853.9886719	795674.16179717961
0.550000	864431747.8323015	680058.55132759933
0.556250	800691940.33289611	682034.34557030618
0.562500	742451144.33721387	594973.26217469166
0.568750	689347308.23286784	606971.34601748991
0.575000	641217651.59547865	541352.16715196997
0.581250	597496368.14748621	616971.78491488635
0.587500	557950246.53122377	574008.08423495584
0.593750	522285847.12360603	615664.5066891507
0.600000	489973418.43295175	643840.77756388439
0.606250	462149120.32360202	433180.10373905324
0.612500	436662791.50690621	352357.22926165833
0.618750	413444724.8061536	373051.61185114423
0.625000	392277905.5504154	367394.60707824124
0.631250	372833599.66045183	399404.05793339876
0.637500	354939873.38554758	395781.84029342287
0.643750	338366118.2540586	406217.13147894893
0.650000	322964487.47999752	423229.93023893557
0.656250	308584037.00782853	434589.20282935712
0.662500	295049961.98679131	442424.55877698486
0.668750	282895111.75397533	273875.58424711303
0.675000	271531086.89609593	225120.91181996939
0.681250	260469459.31185549	182051.66578523829
0.687500	249558852.38349828	194684.23297734739
0.693750	238887383.21273834	163599.35718783722
0.700000	228331141.7980822	178931.23913420478
0.706250	218137140.33340949	176916.8642601945
0.712500	208040571.67090261	245762.60616769543
0.718750	198443210.12628835	249731.54530166104
0.725000	189096151.73817801	259383.44772383693
0.731250	180239598.80771104	266922.2895972266
0.737500	171914692.62198013	305222.91328200692
0.743750	164220516.70781088	280693.2643039102
0.750000	156781173.80171317	285715.80122307362
0.756250	149573903.26772344	267548.33036467782
0.762500	142751238.94314525	264704.00066936878
0.768750	136315291.88015747	272195.79994195077
0.775000	130347630.69633886	237280.80977097724
0.781250	124866100.79052369	235744.61801254997
0.787500	119882896.03717116	216688.08286064432
0.793750	115412911.9199169	213176.83839690205
0.800000	111402454.94609609	206709.9787238799
0.806250	108186018.06313439	152782.42359271817
0.812500	105276404.31696925	152080.1640703275
0.818750	102685221.63975355	167856.59573470286
0.825000	100420069.21883401	158825.45328916612
0.831250	98489336.763454035	160126.31760608245
0.837500	96828963.657742396	156309.23958832581
0.843750	95425326.957043409	146545.3456170506
0.850000	94191399.41961123	151644.65239366729
0.856250	93066467.556392938	155200.06937712719
0.862500	91972924.747625694	156774.17536947207
0.868750	90939133.088858694	151784.48465404101
0.875000	90116714.964737982	156877.41118185542
0.881250	89250883.227652267	160956.65097182622
0.887500	88322811.622414365	165589.67839121728
0.893750	87304666.808687136	163491.10656480401
0.900000	86172610.172004908	168296.40100638545
0.906250	84897012.93230918	168469.61309548441
0.912500	83453525.668209523	168343.51532151981
0.918750	81810247.813797951	164238.94574006661
0.925000	79956532.047295108	165128.3928824836
0.931250	77874218.884465307	165178.57096853855
0.937500	75722877.242982402	132394.79745716014
0.943750	73535673.570310563	125164.07965569143
0.950000	71216782.096376508	118110.33214031115
0.956250	68778780.9702124	111824.79223707267
0.962500	66253888.613658667	106442.96597618627
0.968750	63666599.107244231	102312.37350371748
0.975000	61040245.001608536	98836.467581560762
0.981250	58393946.328007959	93739.94436829623
0.987500	55769713.678494357	95743.734126720374
0.993750	53175892.673291817	95644.740137446453
1.000000	50645433.949871793	96270.747935782187
1.006250	48383459.513841376	58803.397342298602
1.012500	46187625.803076945	54293.167261070244
1.018750	44144690.191263862	57870.591703120183
1.025000	42248243.001516566	57998.586498429075
1.031250	40533946.892274186	54772.935506247384
1.037500	39006246.647080489	50774.638169995422
1.043750	37669146.700266786	47530.400812832238
1.050000	36526215.788697578	43358.859535863325
1.056250	35579778.719978102	43067.03818034321
1.062500	34820980.610458001	43375.531883135598
1.068750	34268700.019915633	56902.259640648343
1.075000	33901738.885660648	54372.785567960389
1.081250	33684511.414806761	51655.697240111753
1.087500	33602484.137174189	48883.477381021032
1.093750	33638474.484468617	46213.21816378209
1.100000	33774971.440974191	43682.972275111781
1.106250	33986253.441041946	41867.80610313666
1.112500	34255392.982561514	40510.379759294476
1.118750	34557803.751796737	39832.419714578275
1.125000	34870813.960133925	41473.13015722228
1.131250	35167049.384370439	40435.121259358835
1.137500	35422686.105001695	68768.440338593748
1.143750	35702336.327294342	68832.364533272994
1.150000	35913678.43163868	68994.008795887537
1.156250	36044024.493576325	69217.11766671759
1.162500	36082943.877580561	69461.102386548737
1.168750	36022072.90400786	69682.684091804957
1.175000	35854939.170490965	69837.671457660646
1.181250	35576814.424604453	69882.734290882872
1.187500	35184699.653913245	69777.745548925363
1.193750	34677372.042285755	69487.969413080253
1.200000	34055548.070046827	68986.663959927566
1.206250	33432789.111309081	77023.705409862261
1.212500	32662684.018961944	73034.498293868572
1.218750	31792524.748540848	69247.494577001649
1.225000	30831998.332146369	66963.552472066003
1.231250	29809089.474199016	63485.123902653308
1.237500	28727593.265257142	59603.283764748921
1.243750	27604252.675907124	57021.670588668043
1.250000	26454627.542335622	54737.149558664321
1.256250	25292508.812050499	53327.780090488748
1.262500	24133177.360613823	50915.52222361599
1.268750	23000531.88189565	53539.970638872845
1.275000	21905196.943297438	52464.886053495196
1.281250	20837237.360303082	50899.020205581401
1.287500	19809449.465634901	48495.008261146832
1.293750	18835893.49544559	46355.786584576272
1.300000	17923041.35776088	43562.07791271092
1.306250	17078764.870846115	40667.415260387279
1.312500	16308132.975297278	37973.89097453421
1.318750	15614373.198247025	35885.503873920898
1.325000	14998973.664284667	34866.950593831607
1.331250	14461697.77307808	35318.255717654683
1.337500	14010691.628661748	20575.407196066037
1.343750	13626028.723729897	21153.784446495214
1.350000	13305715.60932965	22421.437135707743
1.356250	13046841.400795463	23553.908969474211
1.362500	12842876.070340764	24697.091691088732
1.368750	12687562.089650476	25781.377993999489
1.375000	12574422.884648316	26756.723817717608
1.381250	12496820.389510218	27588.882347454823
1.387500	12447916.737619169	28255.65487826593
1.393750	12420997.929384671	28565.312458537486
1.400000	12406844.938301027	29042.385019150686
1.406250	12420640.345932862	35190.368389534116
1.412500	12443206.825555611	34722.444208785251
1.418750	12453472.03042556	34239.981097115364
1.425000	12447895.941124432	34037.845133457704
1.431250	12422120.03258864	33251.494715191147
1.437500	12376354.507006761	32675.765823209076
1.443750	12310259.296682131	32108.213519367928
1.450000	12223942.584321354	31505.74789321802
1.456250	12117811.419418495	30934.362347502636
1.462500	11992353.453615548	30219.905667184059
1.468750	11891191.568343559	14853.184345951375
1.475000	11781191.774003148	16183.827838923467
1.481250	11636994.729451934	17431.855953035785
1.487500	11463766.303964546	18537.598909160697
1.493750	11267869.758026673	19469.090297293857
1.500000	11056284.926895065	20213.066973039575
1.506250	10835986.996247292	20769.408048591784
1.512500	10613378.962090831	21147.715247412572
1.518750	10393806.637940306	21365.23379433226
1.525000	10181168.146659719	21445.156090014814
1.531250	9977712.9913540743	21415.700995053819
1.537500	9833379.4427820034	22483.325110601952
1.543750	9701304.9965282399	22019.466549635719
1.550000	9570960.4170597661	22118.210646503532
1.556250	9447930.7458366249	21964.929622246338
1.562500	9338359.7237921413	21856.370301808736
1.568750	9247041.2653396875	21805.828215685822
1.575000	9177368.511869885	21821.072815399133
1.581250	9131119.3941612281	21904.025555971413
1.587500	9108376.6962470524	22051.295834449564
1.593750	9107592.5251499899	22254.939660475426
1.600000	9125773.6282107104	22503.707276584038
1.606250	9220880.6596892476	19214.545366730039
1.612500	9314599.4755896311	18689.296883975396
1.618750	9418219.0811028536	18369.288339891031
1.625000	9532472.0117585436	18286.324016946743
1.631250	9657290.100773152	18430.325277827724
1.637500	9791179.9082647227	18720.783330933889
1.643750	9932586.2845086735	19341.125701041092
1.650000	10077990.068147579	20076.400246248988
1.656250	10223628.191159064	20834.126419104326
1.662500	10365942.330543239	21938.565785731531
1.668750	10503338.38700095	38758.115575321142
1.675000	10672977.923682708	38528.148182369463
1.681250	10831848.640777526	38189.845356622245
1.687500	10980007.786617609	37759.157959127071
1.693750	11117200.629908973	37247.927408686119
1.700000	11242864.751019862	36664.853978024963
1.706250	11356189.016167203	36017.113007852829
1.712500	11456218.250852901	35312.244544713263
1.718750	11541954.934020359	34560.236268587956
1.725000	11612485.316288438	33775.048061115151
1.731250	11667082.956323791	32975.674232260091
1.737500	11709192.513096299	25559.147690862148
1.743750	11775881.295119472	25196.532147257254
1.750000	11830106.934433434	24873.144232104667
1.756250	11873128.055703666	24409.929912517957
1.762500	11907021.962505681	24375.840759968261
1.768750	11932035.223998476	24210.494427869929
1.775000	11949289.01742029	24103.711671761088
1.781250	11959466.414086761	24057.034054665146
1.787500	11963097.200727331	24072.137189981258
1.793750	11960560.906047618	24151.033040246399
1.800000	11952076.567564024	24296.104179427501
1.806250	11966463.653647413	32271.915869000706
1.812500	11985294.718831334	31851.07157561597
1.818750	12002233.236371316	31380.978129355979
1.825000	12018394.520969195	30815.036280552747
1.831250	12034442.610447446	30390.968248111509
1.837500	12050982.509590406	29949.34591440393
1.843750	12068253.644367188	29532.571908640723
1.850000	12086143.473787883	29252.501333095977
1.856250	12104174.236368304	29107.055324659865
1.862500	12121935.724792097	29003.950668506364
1.868750	12173432.26552977	19596.466767477417
1.875000	12230192.449183311	19252.873202912509
1.881250	12286693.104692101	18999.214231781156
1.887500	12343145.338097714	18843.060961033651
1.893750	12399587.842444163	18787.556042807038
1.900000	12455833.373109827	18785.715905538247
1.906250	12511606.348837053	18966.846831448176
1.912500	12566178.19861831	19184.365612407448
1.918750	12618687.508795355	19469.070230093861
1.925000	12667979.331827309	19822.087433242727
1.931250	12712531.111756314	20170.500509807949
1.937500	12781330.529054476	29967.131844069594
1.943750	12859881.71209437	28768.594423125069
1.950000	12933908.091763154	27683.223143022435
1.956250	13004047.126832727	26737.77361134097
1.962500	13070773.556144284	25956.598891472862
1.968750	13134331.315165391	25360.03081220272
1.975000	13194689.001539918	24962.490878180273
1.981250	13251501.932233803	24770.769378660563
1.987500	13304090.22698885	24782.999679088065
1.993750	13351439.036603279	24988.794480890665
2.000000	13392206.5471313	25369.941411610358
2.006250	13451698.32134999	19686.778901406073
2.012500	13528442.052493954	18970.363647321032
2.018750	13599958.292614987	18398.105440850719
2.025000	13667114.381538551	18190.376836017549
2.031250	13729776.648083355	17984.1407750984
2.037500	13787999.123781824	18030.606191598625
2.043750	13841713.456914086	18561.319270722088
2.050000	13889150.91306751	18996.173158816269
2.056250	13929486.528496336	19704.255953405245
2.062500	13960831.943976298	20542.648233725395
2.068750	14025349.707584914	38688.295026672946
2.075000	14093014.0606403	38898.631365247609
2.081250	14150557.496815586	39123.109818365025
2.087500	14198474.969329122	39372.569939808258
2.093750	14236935.888261136	39655.693798093605
2.100000	14265770.015558144	39978.279588211539
2.106250	14284447.421866646	40342.681954012303
2.112500	14292085.144623553	40736.044148029505
2.118750	14287436.119141672	41187.845777505892
2.125000	14268857.265733996	41499.786902086293
2.131250	14234878.00957175	42137.968397962068
2.137500	14235656.243632276	31323.00199012861
2.143750	14228163.738612145	30684.518432932571
2.150000	14204676.353745122	30004.086877949456
2.156250	14165941.090770131	29302.788645075601
2.162500	14112527.407277379	28598.271301705401
2.168750	14044469.913738918	28030.891075377982
2.175000	13962329.791238267	27304.22975336785
2.181250	13865275.908015478	26773.89321192183
2.187500	13752960.021593791	26361.900997122775
2.193750	13624453.545090934	25930.738516124962
2.200000	13479237.423088739	25988.963696498009
2.206250	13393038.181453941	49848.998383051417
2.212500	13272566.190215399	49067.207477820964
2.218750	13136882.674898278	48225.77697533321
2.225000	12987107.500584569	47635.735915411628
2.231250	12826387.927763682	46472.478615652632
2.237500	12654078.47976863	45614.519020330998
2.243750	12471489.561736893	44801.813846254423
2.250000	12279034.250182018	44054.763816890882
2.256250	12076858.269529428	43419.62234149695
2.262500	11864490.763354061	42813.727997943744
2.268750	11652387.449717633	34891.392316878671
2.275000	11471573.265158664	32949.780713498796
2.281250	11280804.930445638	31064.118372621517
2.287500	11082000.691516986	29269.614241147843
2.293750	10876555.636090353	27610.807590849952
2.300000	10666115.219271589	26091.316799154105
2.306250	10450974.357909543	24776.869287302656
2.312500	10231670.307436148	23670.728761670969
2.318750	10008240.07545997	22805.943544541584
2.325000	9780388.3298772834	22186.640521556095
2.331250	9547604.8965081181	21808.128541305134
2.337500	9332463.8961070217	25062.603960034849
2.343750	9130966.5952562634	23635.76515683566
2.350000	8924739.4720398188	22318.212822466339
2.356250	8715067.9109658189	21128.850301662809
2.362500	8502939.9538099524	20009.949181415563
2.368750	8288859.2351174476	19172.196579871783
2.375000	8073215.8080845531	18399.430719982465
2.381250	7855989.051002251	17743.075097611541
2.387500	7636964.8077084748	17176.796656260725
2.393750	7415611.3331079986	16471.337771495524
2.400000	7192005.6283428725	16187.590204958722
2.406250	7005651.2867510971	29941.170260861752
2.412500	6807502.2658439931	29085.732002421511
2.418750	6607588.5539267343	28244.236071836098
