#List of files for average calculation
#Z:\run\2\100nmRod_Scripted_hybrid_MC\100nmRod_Scripted_hybrid_MC_1
#Z:\run\2\100nmRod_Scripted_hybrid_MC\100nmRod_Scripted_hybrid_MC_2
#Z:\run\2\100nmRod_Scripted_hybrid_MC\100nmRod_Scripted_hybrid_MC_3
#Z:\run\2\100nmRod_Scripted_hybrid_MC\100nmRod_Scripted_hybrid_MC_4
#Z:\run\2\100nmRod_Scripted_hybrid_MC\100nmRod_Scripted_hybrid_MC_5
#Z:\run\2\100nmRod_Scripted_hybrid_MC\100nmRod_Scripted_hybrid_MC_6
#Z:\run\2\100nmRod_Scripted_hybrid_MC\100nmRod_Scripted_hybrid_MC_7
#Z:\run\2\100nmRod_Scripted_hybrid_MC\100nmRod_Scripted_hybrid_MC_8
#Z:\run\2\100nmRod_Scripted_hybrid_MC\100nmRod_Scripted_hybrid_MC_9
#Z:\run\2\100nmRod_Scripted_hybrid_MC\100nmRod_Scripted_hybrid_MC_10
#Average Chi square (Sigma units): 1.3379144483106
#Sigma Chi square: 0.23791133652444
#Calculation was done on GPU
q [nm^-1]	Intensity [A.U]	Sigma [A.U]
0.000000	443046541.56490123	6.2828812205163231e-008
0.006250	438394378.98645878	20353.872886095618
0.012500	424571347.60186702	80567.774755334205
0.018750	402821465.5607928	173017.27176614935
0.025000	375032044.81843597	286506.11279201758
0.031250	343470116.88544667	408326.39415856474
0.037500	310480286.70220548	526479.97973685246
0.043750	278195988.3563211	631566.87690035847
0.050000	248310658.0637525	717925.68702117261
0.056250	221941019.14308661	783799.68688984565
0.062500	199594977.25781196	830572.99760953628
0.068750	181236050.16443717	861416.30902560567
0.075000	166419222.81562218	879886.94175281364
0.081250	154462943.16642299	888999.40129211929
0.087500	144620172.5030959	890975.69274698477
0.093750	136217469.98380479	887480.18202625506
0.100000	128742779.89634109	879937.59089222969
0.106250	122343020.8594749	594744.55186918459
0.112500	115955864.30018339	594955.97653015878
0.118750	109997469.132458	593254.555761914
0.125000	104508521.74425931	588556.85992352036
0.131250	99535114.898349836	580372.45287884644
0.137500	95090590.373013437	568969.43252595351
0.143750	91140937.972186461	555298.46478537389
0.150000	87611331.233121291	540739.96087646275
0.156250	84406190.625277132	526766.17412264459
0.162500	81433138.717730254	514610.25336381863
0.168750	78622292.926742077	505020.96519355074
0.175000	75935636.933686197	498158.69797288056
0.181250	73365368.708149403	493651.38279021683
0.187500	70923779.669249922	490780.79160220851
0.193750	68629393.527150154	488729.17928844743
0.200000	66494404.226937428	486804.76415085292
0.206250	64515854.515134022	482343.70639084722
0.212500	62680730.013856329	480269.49085729034
0.218750	60963737.300697662	477144.20646098693
0.225000	59336264.73998493	473145.77780014917
0.231250	57774527.545897365	468520.43296863831
0.237500	56264628.977780916	463510.59669179266
0.243750	54803705.758474909	458296.37611633172
0.250000	53397336.199321158	452969.35071460332
0.256250	52054619.819823034	447542.33883055073
0.262500	50782919.185451008	441984.10151937138
0.268750	49584088.013664193	436261.35723764717
0.275000	48453253.810616568	430372.76506640489
0.281250	47380210.818623722	424366.02627849224
0.287500	46352583.254216358	418335.48581893509
0.293750	45359425.441825114	412402.5030996445
0.300000	44393948.987379551	406685.19332041265
0.306250	43648536.268353924	289052.20488981187
0.312500	42741611.719366975	286057.94329507626
0.318750	41867318.382876769	283721.54782044387
0.325000	41030012.418282367	281860.32070480112
0.331250	40231408.437012449	280245.14314032317
0.337500	39469643.270109385	278655.69481955067
0.343750	38739752.12117485	276927.21321418841
0.350000	38035234.87063764	274978.10104223207
0.356250	37350042.790743202	272812.40891709976
0.362500	36680238.96648816	270498.98637933424
0.368750	36024777.699015766	268137.16622831835
0.375000	35385214.350349799	265822.65841958288
0.381250	34764551.946520329	263624.34861653269
0.387500	34165713.686575785	261575.1527254821
0.393750	33590213.765042357	259673.47797200872
0.400000	33037473.326938093	257890.18121027231
0.406250	32408205.086674649	288069.9560578377
0.412500	31893729.810802907	282883.69362208579
0.418750	31391740.367781438	277954.44818637823
0.425000	30899807.986916441	273251.41905835766
0.431250	30417185.133763634	268731.8479847968
0.437500	29944710.707810074	264354.75277907954
0.443750	29484161.914034627	260094.10758215367
0.450000	29037332.265956294	255948.04142637062
0.456250	28605189.910761721	251941.16266664563
0.462500	28187411.94053321	248118.81012733857
0.468750	27782430.789168347	244534.67342185791
0.475000	27387933.806268208	241235.68290246269
0.481250	27001599.377641462	238249.07138419885
0.487500	26621785.820099182	235575.56248547524
0.493750	26247929.172379263	233190.28857549475
0.500000	25880529.77767694	231050.38607280634
0.506250	25339674.386120897	203568.17528798341
0.512500	24991420.982057072	203500.32353493056
0.518750	24652555.23709118	203369.4402990425
0.525000	24323071.49008311	203176.28077803284
0.531250	24002124.219745677	202919.31919319017
0.537500	23688322.654836915	202596.55472459804
0.543750	23380208.861523896	202208.70991226501
0.550000	23076730.460009638	201762.47816939736
0.556250	22777535.148670409	201272.15939071964
0.562500	22482992.123112679	200758.66901287128
0.568750	22193952.288881734	200246.04726461336
0.575000	21911353.741781335	199756.53023568389
0.581250	21635827.649343241	199305.5819597306
0.587500	21367447.976504579	198898.11260680709
0.593750	21105705.176866762	198526.73587256935
0.600000	20849696.033351976	198172.54541832535
0.606250	20731808.034458093	219465.55501430866
0.612500	20484227.791603245	216617.54953489648
0.618750	20239879.717951488	213914.94537696484
0.625000	19998990.312246308	211328.88397518956
0.631250	19762182.233532242	208814.39454842734
0.637500	19530168.627609067	206322.54149659027
0.643750	19303433.023954302	203813.76786303098
0.650000	19082012.575997718	201268.3188287917
0.656250	18865457.81357301	198690.67759039279
0.662500	18652973.30302681	196106.96025561341
0.668750	18443677.204862352	193556.43495449348
0.675000	18236877.840583522	191080.00140542659
0.681250	18032265.108405851	188709.14427535562
0.687500	17829951.753701143	186458.49054840891
0.693750	17630358.338148136	184323.86707525761
0.700000	17433993.438767754	182286.03346531105
0.706250	17194902.556501437	176652.97123764499
0.712500	17006775.672362674	175445.79210354944
0.718750	16822164.375939105	174255.79997627591
0.725000	16640563.633791994	173095.82746124789
0.731250	16461369.028240299	171979.72610785966
0.737500	16284091.577548087	170919.47515259538
0.743750	16108518.824641079	169922.49895522831
0.750000	15934765.338910157	168989.86738179383
0.756250	15763199.997601938	168115.84536683912
0.762500	15594283.811662316	167288.91457008602
0.768750	15428383.385022093	166494.0458835164
0.775000	15265630.597589243	165715.74217266811
0.781250	15105878.139388591	164941.20639749378
0.787500	14948762.263764804	164162.91770921848
0.793750	14793843.655115893	163379.9564264231
0.800000	14640769.747809758	162597.66315688635
0.806250	14587398.98199359	137439.90042487282
0.812500	14438351.864944343	136625.02983650981
0.818750	14291241.98456428	135838.77215016627
0.825000	14146374.971519506	135079.26251828324
0.831250	14003987.294945434	134348.78429810167
0.837500	13864134.095261997	133651.97027012683
0.843750	13726649.877026517	132992.79743956169
0.850000	13591193.433343027	132371.55804083653
0.856250	13457356.430032257	131783.00348147721
0.862500	13324792.32965005	131216.41956030295
0.868750	13193316.813914055	130657.66823244863
0.875000	13062943.797593975	130092.50297830881
0.881250	12933846.81812821	129510.00578858459
0.887500	12806263.856929755	128904.96574337027
0.893750	12680383.844448581	128278.41666422819
0.900000	12556258.072456948	127636.21348589619
0.906250	12503467.765678372	222182.38869975306
0.912500	12383034.569992203	219153.07703523847
0.918750	12263749.808429521	216132.71275391051
0.925000	12145386.647012539	213120.3878524614
0.931250	12027844.922637926	210132.16679115509
0.937500	11911182.932687335	207194.56740582024
0.943750	11795589.339970957	204334.94208503742
0.950000	11681307.893174972	201571.86647648539
0.956250	11568544.902361108	198908.52547376498
0.962500	11457394.73831022	196330.97643697134
0.968750	11347810.517838815	193811.54598752232
0.975000	11239629.168275226	191316.08359127038
0.981250	11132639.353003759	188812.79488715692
0.987500	11026665.141145227	186280.09105119196
0.993750	10921633.443117511	183711.30428669706
1.000000	10817600.500193141	181115.10087779828
1.006250	10579422.866044816	225187.588602898
1.012500	10479718.158920411	223870.04046560891
1.018750	10381415.24547359	222557.23430838186
1.025000	10284561.671682175	221247.1718691673
1.031250	10189086.697694253	219937.74223934056
1.037500	10094816.697172828	218627.76496074066
1.043750	10001528.953440001	217317.55617481537
1.050000	9909022.4971407559	216008.91946415795
1.056250	9817178.9494934175	214704.64321470671
1.062500	9725990.9971099552	213407.70806277334
1.068750	9635548.9903386943	212120.44578432507
1.075000	9545992.0976621434	210843.85798862632
1.081250	9457443.3894939777	209577.23438336799
1.087500	9369953.4590162896	208318.13667142167
1.093750	9283473.0770935118	207062.74524869866
1.100000	9197863.8320355304	205806.49788821876
1.106250	9110418.344039293	142053.22309070092
1.112500	9026882.5267329756	141259.78780223874
1.118750	8943786.8362268563	140456.06226998859
1.125000	8861158.0800827183	139639.7566842564
1.131250	8779107.1300411765	138810.86867839057
1.137500	8697788.413145544	137972.06009884042
1.143750	8617344.2871662229	137128.76992758727
1.150000	8537855.5308085643	136288.816919223
1.156250	8459316.2358416729	135461.38837285369
1.162500	8381641.6726292726	134655.52978921772
1.168750	8304705.1020206464	133878.47006503723
1.175000	8228388.8648928851	133134.24993985315
1.181250	8152630.3207796384	132423.09498367712
1.187500	8077445.8892917465	131741.77456028297
1.193750	8002925.2691006958	131084.88233362144
1.200000	7929199.3076835368	130446.68313009886
1.206250	7952958.6549050855	86296.254207431688
1.212500	7881093.4551977534	85908.843333341123
1.218750	7810145.8247123985	85537.952162678193
1.225000	7740015.2211382538	85183.10820893693
1.231250	7670563.3516583517	84840.613743495865
1.237500	7601658.010178539	84504.86733219499
1.243750	7533213.7035984201	84170.015242890513
1.250000	7465213.940346512	83831.480366988995
1.256250	7397707.3251219783	83487.002061719002
1.262500	7330779.6526630521	83136.978621738162
1.268750	7264513.1459988486	82784.085950309454
1.275000	7198948.4821510985	82432.311128370173
1.281250	7134063.7121621771	82085.660814235001
1.287500	7069777.3686127495	81746.865421670343
1.293750	7005973.7019974887	81416.391822136575
1.300000	6942539.7216976704	81091.999410024044
1.306250	6885063.7314576209	105973.29795653153
1.312500	6822402.5801125076	105316.02669059689
1.318750	6760072.5889369724	104665.27349702537
1.325000	6698165.8243415747	104012.20414228483
1.331250	6636775.8341312669	103349.52561452345
1.337500	6575965.9502091315	102673.16745598556
1.343750	6515749.9897962715	101982.97631435179
1.350000	6456092.2493453547	101282.30365478594
1.356250	6396926.2270910572	100576.69082562186
1.362500	6338184.4594715042	99872.102689405263
1.368750	6279827.865804676	99173.2573293483
1.375000	6221863.4965729583	98482.522284986466
1.381250	6164344.2712492216	97799.634113083215
1.387500	6107351.2899851594	97122.228031554856
1.393750	6050965.8985298052	96446.928517733264
1.400000	5995242.385406916	95770.61759124574
1.406250	5904298.0556153227	82020.568337042496
1.412500	5850508.6464270055	81572.917145681029
1.418750	5797224.7300260831	81124.811292205384
1.425000	5744361.4682562249	80668.918135799278
1.431250	5691859.4452775838	80201.789171145487
1.437500	5639701.6254654024	79724.743093521887
1.443750	5587914.2560719578	79243.20165065871
1.450000	5536551.6660428727	78764.750235486106
1.456250	5485670.9233271433	78296.581852037853
1.462500	5435305.9503262891	77843.152106337569
1.468750	5385450.6637274921	77404.777096336053
1.475000	5336057.1097881515	76977.577863903978
1.481250	5287048.8460757639	76554.72390765461
1.487500	5238344.1680119904	76128.510086347043
1.493750	5189880.3007978061	75692.560326700084
1.500000	5141629.6104325876	75243.46132796914
1.506250	5120025.7690867092	66165.70645390646
1.512500	5072415.833892758	65800.321639829752
1.518750	5025157.9729915084	65422.272567269341
1.525000	4978299.8910689801	65033.134636221177
1.531250	4931854.9385653483	64637.36848885435
1.537500	4885800.3937854562	64241.284329074399
1.543750	4840089.3623394612	63851.462711164837
1.550000	4794671.5624171467	63473.102128529514
1.556250	4749515.0137199052	63108.784437812639
1.562500	4704620.4724913538	62758.010524420257
1.568750	4660023.3479479682	62417.609919485054
1.575000	4615782.6377444388	62082.855407878385
1.581250	4571961.2860312751	61748.907867572852
1.587500	4528605.4737675181	61412.140877355756
1.593750	4485730.5784638887	61070.965016319969
1.600000	4443318.8756551435	60725.956123328266
1.606250	4392215.4399695918	84761.463177039361
1.612500	4350977.2737145647	84037.00775024615
1.618750	4310043.9703542469	83317.547781162706
1.625000	4269400.0301035363	82598.045340118231
1.631250	4229058.7299135495	81874.475278821585
1.637500	4189052.7956794142	81144.716016435501
1.643750	4149417.7282780507	80408.931079100556
1.650000	4110174.2334761508	79669.374375333195
1.656250	4071316.4418533258	78929.717159194493
1.662500	4032810.2999280072	78194.117492315185
1.668750	3994602.5932453782	77466.302050719649
1.675000	3956637.0422143256	76748.896747756327
1.681250	3918871.3110278165	76043.142955871066
1.687500	3881288.5381466756	75349.006281807946
1.693750	3843899.1693701558	74665.5689928176
1.700000	3806732.5833418057	73991.530890944108
1.706250	3757200.6286182157	55450.474724914478
1.712500	3720593.6033368097	55052.754974708369
1.718750	3684290.4829397635	54647.988708538331
1.725000	3648282.9546704022	54239.244625749358
1.731250	3612542.0452453345	53828.762118999315
1.737500	3577031.5290155448	53417.6138114676
1.743750	3541723.6327983388	53005.83122282166
1.750000	3506611.1036897944	52592.875291181073
1.756250	3471711.2461888567	52178.230213887509
1.762500	3437060.6860262556	51761.883726261214
1.768750	3402703.1409602663	51344.520628442289
1.775000	3368675.030984357	50927.37057590083
1.781250	3334994.4088886208	50511.779912186903
1.787500	3301657.2542960779	50098.682024302339
1.793750	3268642.2626581807	49688.184900492924
1.800000	3235922.0241258284	49279.456554446966
1.806250	3212507.257135286	39495.76817459723
1.812500	3180495.0220340723	39127.699204212571
1.818750	3148722.1278332118	38758.160740069237
1.825000	3117210.7638344774	38384.223138171437
1.831250	3085989.2721735071	38004.579311923684
1.837500	3055078.8914522482	37619.656413422766
1.843750	3024483.4822590314	37231.233685820764
1.850000	2994186.0189618119	36841.713455273479
1.856250	2964152.9895214019	36453.293146212483
1.862500	2934344.826096165	36067.303710315144
1.868750	2904728.252300058	35683.913247456301
1.875000	2875285.813525049	35302.268243262777
1.881250	2846019.053646035	34920.999438843886
1.887500	2816944.3144919579	34538.900794403344
1.893750	2788082.9717260543	34155.537124340524
1.900000	2759449.9902741024	33771.567765932778
1.906250	2696338.9440582963	57775.731479887552
1.912500	2668440.2292618556	57304.728436337668
1.918750	2640747.8128529685	56836.581136013003
1.925000	2613235.6553858863	56372.234477798898
1.931250	2585881.0951703088	55911.787566409374
1.937500	2558674.6992172124	55454.447064831191
1.943750	2531624.9098920417	54998.764422689055
1.950000	2504755.8820617227	54543.09990246997
1.956250	2478099.5131917023	54086.173830524232
1.962500	2451684.8381304769	53627.527609312594
1.968750	2425528.8755750726	53167.741117229765
1.975000	2399632.3529111096	52708.333201180722
1.981250	2373981.7868128	52251.379272832317
1.987500	2348556.9322940232	51798.974282514937
1.993750	2323340.587668601	51352.71626668363
2.000000	2298326.9230891243	50913.371393402602
2.006250	2284934.2536777258	45001.305903234686
2.012500	2260502.4512075679	44573.276641122888
2.018750	2236303.7023426923	44148.177867744467
2.025000	2212355.9979507984	43724.326112655486
2.031250	2188665.2974496195	43300.349558588852
2.037500	2165221.6956650494	42875.641927639459
2.043750	2142001.5225718152	42450.553156568174
2.050000	2118974.4894666946	42026.24782116268
2.056250	2096113.1201479323	41604.282485362986
2.062500	2073400.8985623443	41186.053135847258
2.068750	2050836.1118277081	40772.309897562496
2.075000	2028430.0412231951	40362.913431121415
2.081250	2006200.30425594	39956.922862330634
2.087500	1984161.9593777366	39552.986149348493
2.093750	1962319.775009678	39149.891353562081
2.100000	1940664.5560379555	38747.073105830015
2.106250	1920884.1081003528	69688.997498633864
2.112500	1899455.2593590026	68997.064261332649
2.118750	1878159.0341979885	68299.557134396731
2.125000	1856987.8541489702	67596.853327078381
2.131250	1835946.233645099	66890.863068984851
2.137500	1815049.9526952456	66184.816129012062
2.143750	1794320.8838928863	65482.6349196503
2.150000	1773779.5804232291	64788.041616189781
2.156250	1753438.5383627408	64103.643909225146
2.162500	1733298.7188802343	63430.272925007419
2.168750	1713350.6054338166	62766.790887983807
2.175000	1693579.2999989174	62110.455181776779
2.181250	1673971.6172531038	61457.756408777313
2.187500	1654522.4027500071	60805.494696993163
2.193750	1635237.645473487	60151.773779816976
2.200000	1616133.2258514403	59496.608644252243
2.206250	1591156.6337057173	16355.068396576607
2.212500	1572602.9299211192	16175.057771104492
2.218750	1554257.8242219423	15998.360214336617
2.225000	1536116.1124099172	15823.777740943666
2.231250	1518162.3192901127	15649.458043860952
2.237500	1500375.3890240686	15473.541931804419
2.243750	1482735.4232782759	15294.838526570336
2.250000	1465229.8552972134	15113.291709264653
2.256250	1447856.709782047	14930.075967596238
2.262500	1430623.7503336612	14747.286290750497
2.268750	1413543.9037767895	14567.322132495461
2.275000	1396628.7627054572	14392.16682002778
2.281250	1379882.6709706709	14222.798590796416
2.287500	1363299.6370613507	14058.92487331373
2.293750	1346864.2125367746	13899.121152515056
2.300000	1330555.951072593	13741.318214084169
2.306250	1319931.4015645331	21071.45322090789
2.312500	1303718.9476340183	20838.425735465251
2.318750	1287611.934606805	20604.865534588818
2.325000	1271623.6318819411	20370.840215454053
2.331250	1255771.6977903515	20136.958062207519
2.337500	1240072.1298808153	19904.284175613408
2.343750	1224533.8652912027	19674.126674868643
2.350000	1209156.1051667535	19447.745351741243
2.356250	1193929.3720864074	19226.05874049979
2.362500	1178839.8709577341	19009.429475004577
2.368750	1163875.4673359278	18797.589591737476
2.375000	1149030.9994109983	18589.730797306995
2.381250	1134310.9185102028	18384.739091534542
2.387500	1119728.2881136991	18181.511291892893
2.393750	1105300.5581437224	17979.265476234526
2.400000	1091043.7390525774	17777.756714908384
2.406250	1102757.2708591088	20255.112848075918
2.412500	1088633.3922798019	20029.115029370168
2.418750	1074672.0050836438	19805.128651835032
2.425000	1060856.2119877199	19583.685080115254
2.431250	1047168.9844901093	19365.071374461935
2.437500	1033598.4732595233	19149.256297051452
2.443750	1020141.258663578	18935.927623795567
2.450000	1006802.3569939533	18724.627449900094
2.456250	993592.05585764372	18514.931748768107
2.462500	980520.853740133	18306.601711617895
2.468750	967594.46586888877	18099.646248547888
2.475000	954810.78065205587	17894.270357138277
2.481250	942159.85686083848	17690.726943019898
2.487500	929626.86380731373	17489.125719967906
2.493750	917196.7506319083	17289.272723151451
2.500000	904858.81237049366	17090.610982266477
2.506250	870688.85446946858	25611.738972304891
2.512500	858751.07376866019	25304.928769847123
2.518750	846921.01633335499	25000.018358001271
2.525000	835212.45567927544	24697.827853993735
2.531250	823633.9683221929	24398.753953073683
2.537500	812186.16243240726	24102.711377542171
2.543750	800861.92129077332	23809.229013417997
