#List of files for average calculation
#C:\D+_tests\Symmetry\GPU\Without_Hydration\Scripted_Symmetry_Implicit_No_Charges_Without_Hydration_MC_Amp\Scripted_Symmetry_Implicit_No_Charges_Without_Hydration_MC_Amp_1
#C:\D+_tests\Symmetry\GPU\Without_Hydration\Scripted_Symmetry_Implicit_No_Charges_Without_Hydration_MC_Amp\Scripted_Symmetry_Implicit_No_Charges_Without_Hydration_MC_Amp_2
#C:\D+_tests\Symmetry\GPU\Without_Hydration\Scripted_Symmetry_Implicit_No_Charges_Without_Hydration_MC_Amp\Scripted_Symmetry_Implicit_No_Charges_Without_Hydration_MC_Amp_3
#C:\D+_tests\Symmetry\GPU\Without_Hydration\Scripted_Symmetry_Implicit_No_Charges_Without_Hydration_MC_Amp\Scripted_Symmetry_Implicit_No_Charges_Without_Hydration_MC_Amp_4
#C:\D+_tests\Symmetry\GPU\Without_Hydration\Scripted_Symmetry_Implicit_No_Charges_Without_Hydration_MC_Amp\Scripted_Symmetry_Implicit_No_Charges_Without_Hydration_MC_Amp_5
#C:\D+_tests\Symmetry\GPU\Without_Hydration\Scripted_Symmetry_Implicit_No_Charges_Without_Hydration_MC_Amp\Scripted_Symmetry_Implicit_No_Charges_Without_Hydration_MC_Amp_6
#C:\D+_tests\Symmetry\GPU\Without_Hydration\Scripted_Symmetry_Implicit_No_Charges_Without_Hydration_MC_Amp\Scripted_Symmetry_Implicit_No_Charges_Without_Hydration_MC_Amp_7
#C:\D+_tests\Symmetry\GPU\Without_Hydration\Scripted_Symmetry_Implicit_No_Charges_Without_Hydration_MC_Amp\Scripted_Symmetry_Implicit_No_Charges_Without_Hydration_MC_Amp_8
#C:\D+_tests\Symmetry\GPU\Without_Hydration\Scripted_Symmetry_Implicit_No_Charges_Without_Hydration_MC_Amp\Scripted_Symmetry_Implicit_No_Charges_Without_Hydration_MC_Amp_9
#C:\D+_tests\Symmetry\GPU\Without_Hydration\Scripted_Symmetry_Implicit_No_Charges_Without_Hydration_MC_Amp\Scripted_Symmetry_Implicit_No_Charges_Without_Hydration_MC_Amp_10
#Average Chi square (Sigma units): 1.5411105723431
#Sigma Chi square: 0.32236053824407
#Calculation was done on GPU
q [nm^-1]	Intensity [A.U]	Sigma [A.U]
0.000000	43448519675.188942	8.0420879622608936e-006
0.006250	43465328273.630417	188982.6329571848
0.012500	43389377649.349289	282706.96517965518
0.018750	43223060680.150269	339226.47337252292
0.025000	42969077889.280365	500859.38472820364
0.031250	42630425926.791328	869024.59874775528
0.037500	42210388167.216431	1443634.1771523613
0.043750	41712527423.561783	2215569.473228809
0.050000	41140680777.612015	3184183.3719921294
0.056250	40498956526.550461	4352156.3807681855
0.062500	39791733245.893715	5722752.7533647604
0.068750	39054483308.312119	15058542.453160191
0.075000	38330839502.213425	18899936.044772368
0.081250	37543612515.526115	23176648.921458047
0.087500	36699882349.697647	27794825.207015499
0.093750	35806671332.725075	32661823.803294059
0.100000	34870868175.756187	37687271.761747539
0.106250	33899160049.492729	42783901.426413752
0.112500	32897972680.395885	47868263.528455198
0.118750	31873418466.693901	52861349.546577774
0.125000	30831252614.191875	57689134.777107492
0.131250	29776837291.883778	62283045.76394251
0.137500	28760124632.087486	24585969.56252763
0.143750	27733826394.236095	25843101.981581088
0.150000	26695360860.588787	27005206.543082274
0.156250	25651602457.964489	28055935.414051566
0.162500	24608971669.950581	28981540.839841831
0.168750	23573403865.842461	29770984.25832865
0.175000	22550324287.205883	30416007.645992611
0.181250	21544629192.062027	30911166.057213526
0.187500	20560673156.695423	31253820.767544046
0.193750	19602262535.084564	31444092.70558143
0.200000	18672655075.955372	31484776.007473271
0.206250	17788066226.024338	34707599.555690065
0.212500	16925863207.674402	34947906.65174865
0.218750	16088666246.263721	35072330.934879057
0.225000	15279019633.759058	35081485.658258773
0.231250	14498997457.029089	34977416.817440055
0.237500	13750210144.787403	34763532.502086282
0.243750	13033815502.503666	34444515.844288513
0.250000	12350534235.283085	34026222.091120698
0.256250	11700669958.714014	33515560.572536532
0.262500	11084133697.683865	32920362.628982775
0.268750	10502906357.587969	22337819.404767994
0.275000	9948899837.4330101	21442183.180893291
0.281250	9422538398.4982281	20536473.45304634
0.287500	8923303449.9701347	19634712.079882815
0.293750	8450516184.4103146	18750348.65156737
0.300000	8003350163.4170685	17895982.85126628
0.306250	7580845202.0721846	17083028.476223998
0.312500	7181922552.1729641	16321325.88102909
0.318750	6805401384.2493534	15618724.826369626
0.325000	6450016568.3663235	14980678.870707264
0.331250	6114437753.7114201	14409910.879690539
0.337500	5794939978.533658	18408273.952417236
0.343750	5494644386.7260532	17801519.197085895
0.350000	5209546944.5427904	17175416.288404826
0.356250	4938602468.374649	16533687.85916879
0.362500	4680850553.7656736	15880037.164363548
0.368750	4435409373.2542419	15218156.959572414
0.375000	4201470021.4498658	14551729.917572288
0.381250	3978291407.3457232	13884421.447677616
0.387500	3765195693.8669257	13219865.763407832
0.393750	3561564284.654532	12561646.00226769
0.400000	3366834358.0852709	11913269.148308957
0.406250	3178787495.3322744	12772776.409231594
0.412500	3001079237.0750165	12312492.953429503
0.418750	2830054659.489593	11860681.64700917
0.425000	2665537371.1556101	11417003.489160338
0.431250	2507424029.2708058	10981179.349849539
0.437500	2355665861.6852865	10553010.824091632
0.443750	2210251912.1052346	10132390.594026994
0.450000	2071194008.4661098	9719304.7806334272
0.456250	1938513454.4753463	9313829.5147326998
0.462500	1812229444.3245206	8916123.6261695065
0.468750	1691040003.4452434	5963949.2624928057
0.475000	1577842337.4625618	5699143.8638352985
0.481250	1469839966.9156673	5438182.2991239
0.487500	1367139113.6592877	5182099.4661305891
0.493750	1269841945.0623918	4931692.9486483429
0.500000	1178033328.5828528	4687530.7276725275
0.506250	1091769684.1998751	4449971.1629722612
0.512500	1011069934.7041957	4219192.8423866546
0.518750	935908553.8460567	3995231.2479220903
0.525000	866210712.34095418	3778018.7987750382
0.531250	801849521.73314786	3567424.7858718005
0.537500	744284106.30102527	3222379.5777096595
0.543750	689299587.78827572	3002513.0364800282
0.550000	638700805.93532157	2787169.860363136
0.556250	592339641.55990767	2576597.5061773891
0.562500	550046465.87067056	2371147.3972553164
0.568750	511627738.51359832	2171267.1725461562
0.575000	476864737.24917144	1977495.9151724004
0.581250	445513419.26018584	1790461.1211230091
0.587500	417305414.09026575	1610876.1917711811
0.593750	391950148.21305484	1439537.3488354208
0.600000	369138101.23209763	1277319.0325840579
0.606250	348779783.99131894	1210749.4248849563
0.612500	330606406.54643524	1115132.7748060122
0.618750	314232371.36741126	1030386.8783750572
0.625000	299437728.7329163	956313.65182749345
0.631250	286015559.38387507	892616.46910221432
0.637500	273770849.63071221	838895.43838671502
0.643750	262519700.35105634	794643.84092523297
0.650000	252088869.87790579	759249.33008742984
0.656250	242315650.77825308	732003.26430895156
0.662500	233048080.52217117	712119.80345906189
0.668750	225120427.3558231	735354.64854387869
0.675000	217422133.48203975	724741.7651991942
0.681250	209834968.66913396	712693.88422657433
0.687500	202320228.53517991	699156.73839523015
0.693750	194858218.99958554	684174.38449796371
0.700000	187444247.55009633	667863.7658913479
0.706250	180084990.81307906	650392.39994394954
0.712500	172795238.42708668	631959.5121197569
0.718750	165595013.21970373	612780.64499994135
0.725000	158507067.68767244	593075.59996873327
0.731250	151554756.78029954	573059.45938288851
0.737500	145818141.95576718	523648.99032056978
0.743750	139915574.90992814	529457.32867035829
0.750000	134015919.22120373	533820.57889918867
0.756250	128187414.45004284	536660.30035636318
0.762500	122495379.21313587	537935.0408862168
0.768750	116999229.06776643	537628.99768768426
0.775000	111750015.08784699	535743.99562111346
0.781250	106788483.1316364	532293.56450450595
0.787500	102143653.80114141	527298.29417779448
0.793750	97831923.093201071	520781.99838672404
0.800000	93856683.74225384	512768.52201498201
0.806250	90646838.676273093	501011.07855651015
0.812500	87689592.319421977	498408.51095697406
0.818750	84945587.136718065	494374.67858481925
0.825000	82424229.401526645	488904.94914236083
0.831250	80127262.307768777	482036.41553684435
0.837500	78048374.538992077	473848.32989473443
0.843750	76173115.252200335	464461.27639030805
0.850000	74479115.47644335	454034.98011395405
0.856250	72936615.926165774	442764.70163518039
0.862500	71509301.22931549	430876.2174343103
0.868750	70242912.554835185	345017.59435507422
0.875000	69355814.004409477	317507.04580456967
0.881250	68454256.515368313	291851.79556680541
0.887500	67523546.104649395	268966.90571108984
0.893750	66550600.152378365	249796.21200166852
0.900000	65523679.066845872	235222.49273185659
0.906250	64432204.178545676	225912.28991203391
0.912500	63266661.86327298	222135.20877828659
0.918750	62018593.894283511	223654.26179560769
0.925000	60680674.023513004	229771.83662597829
0.931250	59246870.791857585	239513.33661314123
0.937500	57923937.67908565	320241.52665235521
0.943750	56617834.1408896	319596.2037878008
0.950000	55173506.757400632	318892.35983276844
0.956250	53615067.109203182	318250.75085695286
0.962500	51968521.474615462	317779.77893585706
0.968750	50260714.203487292	317569.5100798569
0.975000	48518387.872024156	317687.38526960718
0.981250	46767360.21863737	318175.83888918243
0.987500	45031817.86082007	319051.87078417442
0.993750	43333726.793049596	320308.42509234534
1.000000	41692359.66571556	321917.2502180321
1.006250	40382788.81156788	215981.348688153
1.012500	39029746.941983372	223926.08048617188
1.018750	37728863.297721431	231473.65276202388
1.025000	36506688.467814289	238498.4359666672
1.031250	35385633.760094337	244906.44143815606
1.037500	34383324.899988547	250633.43751026367
1.043750	33512126.593400963	255642.47039218643
1.050000	32778837.953683376	259920.74892864574
1.056250	32184558.792694677	263475.89521138725
1.062500	31724726.775948048	266331.63567548851
1.068750	31404806.579033442	168550.2879385307
1.075000	31293778.408356629	167612.70065421768
1.081250	31280821.533438288	165999.30603066861
1.087500	31361196.261850514	163851.28054043095
1.093750	31526945.197142404	161325.44300671548
1.100000	31766943.833345849	158585.70408205228
1.106250	32067042.86023603	155793.33564839617
1.112500	32410302.179346889	153096.33258020808
1.118750	32777316.630741168	150618.61602817982
1.125000	33146633.430535484	148450.31878454669
1.131250	33495261.319180049	146640.70769113066
1.137500	33981126.56485673	228787.92562847523
1.143750	34410930.663508326	226992.79160230709
1.150000	34784179.365057983	224802.01643953082
1.156250	35090885.397316843	222221.05191096384
1.162500	35322156.815079205	219257.12984678164
1.168750	35470177.611745499	215919.82409574892
1.175000	35528208.743098371	212221.47162550275
1.181250	35490609.563232072	208177.45806558061
1.187500	35352879.672635034	203806.37751305985
1.193750	35111721.178425826	199130.07959565791
1.200000	34765121.366742127	194173.61886855291
1.206250	34549924.630692139	310866.61999013781
1.212500	34166358.417753659	305174.46948772052
1.218750	33676862.032726668	298988.87400837603
1.225000	33093784.419838637	292373.75347484322
1.231250	32430184.328737497	285393.34950443276
1.237500	31699418.788139157	278110.76902555936
1.243750	30914776.088437609	270586.78453450312
1.250000	30089153.273277264	262878.89754764823
1.256250	29234778.140088208	255040.66291040718
1.262500	28362975.749583639	247121.26229535858
1.268750	27471406.442787051	140494.69249366975
1.275000	26696320.192529965	137097.3382897542
1.281250	25908381.123886071	133848.13437303071
1.287500	25122862.672712479	130789.92852398576
1.293750	24353274.814144798	127955.19815922782
1.300000	23611055.651444908	125364.86109600517
1.306250	22905332.522275697	123027.73010755889
1.312500	22242752.622402422	120940.56061484276
1.318750	21627383.146821283	119088.58723768097
1.325000	21060680.948314652	117446.40914542538
1.331250	20541531.713433258	115979.07576280687
1.337500	20050311.690367047	144624.27878804549
1.343750	19681252.19618132	138672.65935722101
1.350000	19350630.753631908	132735.1127750634
1.356250	19058158.07725649	126916.71516937876
1.362500	18801884.693441179	121331.39965418165
1.368750	18578231.658120923	116095.26543722798
1.375000	18382059.622284241	111317.33739527852
1.381250	18206776.245282583	107088.06252103423
1.387500	18044481.955944125	103466.69441576769
1.393750	17886154.061492067	100469.71392013269
1.400000	17721869.204267509	98063.053650698494
1.406250	17696201.187138755	121579.04216148291
1.412500	17583573.581003912	117494.29534122859
1.418750	17453729.155572012	113635.59378838549
1.425000	17303579.93646856	109997.98936031348
1.431250	17130207.994013257	106569.77151377226
1.437500	16930859.429479823	103332.29120784713
1.443750	16702949.313925683	100260.17260230886
1.450000	16444077.579591352	97321.922858494407
1.456250	16152055.863869563	94480.916014876377
1.462500	15824945.305844307	91696.695416529939
1.468750	15537105.765059147	99097.073873739952
1.475000	15217183.956058968	96841.637808150568
1.481250	14855517.815441826	94196.25044692638
1.487500	14457373.154175287	91183.735189153638
1.493750	14028309.283466902	87837.663145807368
1.500000	13574005.865310321	84199.810629844549
1.506250	13100109.894614238	80317.900933244367
1.512500	12612102.81291382	76243.6302967253
1.518750	12115187.753664684	72030.964203167372
1.525000	11614196.919119686	67734.682331191623
1.531250	11113519.088788059	63409.145217204969
1.537500	10609416.297603581	85029.119455154505
1.543750	10159821.498632284	80829.319975027553
1.550000	9709117.3334334306	76248.977768778714
1.556250	9264218.6669185329	71395.976420894207
1.562500	8831337.4114467241	66373.098818014754
1.568750	8415869.2280304637	61276.224128718415
1.575000	8022308.478964393	56192.860171136934
1.581250	7654191.4318774547	51200.994100390228
1.587500	7314067.7152084764	46368.247506719825
1.593750	7003500.02510483	41751.323892598477
1.600000	6723092.0837445362	37395.737764713034
1.606250	6519048.4327999484	36046.464803881681
1.612500	6311124.2874291101	33847.05822777639
1.618750	6127119.0187015831	31984.224209015389
1.625000	5967733.2914818805	30474.886666978342
1.631250	5833038.9826844102	29324.107762119991
1.637500	5722485.8491788972	28524.089629364829
1.643750	5634924.5139944414	28054.683389452919
1.650000	5568645.7708222382	27885.537876687737
1.656250	5521436.2068168661	27979.424453934647
1.662500	5490650.1436962541	28295.873753871871
1.668750	5484881.9592296649	33995.88153896085
1.675000	5502859.6979990583	34357.37558920672
1.681250	5529900.0173478508	34801.578080735075
1.687500	5564623.2651205445	35310.682906427828
1.693750	5605674.6436473578	35867.649355220783
1.700000	5651709.7795936465	36456.207043117895
1.706250	5701387.2490223702	37060.910193871336
1.712500	5753368.057669621	37667.214645391447
1.718750	5806322.0764332088	38261.560851357201
1.725000	5858941.432074314	38831.454429755868
1.731250	5909960.8531321995	39365.541896031937
1.737500	5959649.8816177277	20355.019008046744
1.743750	6031811.1153769996	20719.531891966992
1.750000	6100557.2868041825	21101.706221480057
1.756250	6166242.3139251238	21495.040597864463
1.762500	6229276.6757110851	21893.786477223683
1.768750	6290068.6185083054	22292.911072328956
1.775000	6348975.710185552	22688.08224958141
1.781250	6406266.7419996606	23075.655349747318
1.787500	6462093.9781790543	23452.649845298009
1.793750	6516475.753225253	23816.710392363679
1.800000	6569289.4169323575	24166.052346551678
1.806250	6670576.2523997007	40312.970492187196
1.812500	6746857.7119927462	40327.058382406118
1.818750	6822729.6323218718	40252.104340379417
1.825000	6899105.2520735189	40103.943360503872
1.831250	6976668.4142754655	39900.118631292811
1.837500	7055839.3488789918	39659.382538626793
1.843750	7136752.5995234903	39401.050490633657
1.850000	7219247.0944834771	39144.20727751658
1.856250	7302868.3617980089	38906.787001258475
1.862500	7386882.8885825574	38704.575080835733
1.868750	7461698.3347335178	55559.148742791105
1.875000	7572483.4828048814	56314.348136944718
1.881250	7683857.7609564187	57059.290677756879
1.887500	7795869.424534753	57788.90706881092
1.893750	7908355.4613627065	58497.003026203041
1.900000	8020930.4848029586	59176.277388056493
1.906250	8132983.6739794016	59818.405412582877
1.912500	8243683.761156043	60414.184156786083
1.918750	8351992.0662735458	60953.736142623973
1.925000	8456683.5786433853	61426.767220212474
1.931250	8556376.0857995618	61822.874556076444
1.937500	8648988.4937781151	41365.732868561521
1.943750	8766833.9618283249	41771.632988164311
1.950000	8880558.272380311	42180.093147880856
1.956250	8990331.9696758874	42603.811413162963
1.962500	9096189.0944902059	43055.367605545849
1.968750	9198009.3292981423	43546.347652136152
1.975000	9295506.458921317	44086.452072909291
1.981250	9388223.1466559973	44682.659670839319
1.987500	9475532.0258817412	45338.520693187667
1.993750	9556643.1071507577	46053.645972490543
2.000000	9630617.5007581152	46823.43994857787
2.006250	9731492.55475308	63959.192203365506
2.012500	9827217.5000115838	63787.836517107658
2.018750	9917609.985826388	63493.022896792667
2.025000	10003082.612598063	63084.746477784378
2.031250	10083832.197015377	62574.396747218685
2.037500	10159818.993110348	61974.561800461364
2.043750	10230753.868039215	61298.798913180603
2.050000	10296093.432589417	60561.366844929311
2.056250	10355043.126412503	59776.917015220963
2.062500	10406568.257983003	58960.143468904265
2.068750	10483982.033443941	47476.065907682176
2.075000	10555311.80910364	47280.862462788551
2.081250	10619102.487104706	47102.905229188538
2.087500	10675749.998075901	46953.770264171922
2.093750	10725423.968499672	46843.578415267148
2.100000	10768054.513176043	46780.533409685464
2.106250	10803326.468437066	46770.458957029165
2.112500	10830681.066111758	46816.37098090331
2.118750	10849325.048241656	46918.124231265647
2.125000	10858247.22254684	47072.170094613153
2.131250	10856242.458642576	47271.454263304367
2.137500	10856436.344585631	49045.87014578074
2.143750	10870541.970511697	48969.868198808275
2.150000	10873310.276408941	48914.355999063759
2.156250	10865119.992089182	48884.989813309207
2.162500	10846214.109992865	48884.559522183947
2.168750	10816690.462029928	48912.883013832048
2.175000	10776497.659491796	48966.827623921119
2.181250	10725436.396034613	49040.457001038652
2.187500	10663166.113733668	49125.29212097016
2.193750	10589217.032208988	49210.667203339442
2.200000	10503007.540822139	49284.15615249837
2.206250	10439561.248705989	69832.186329721852
2.212500	10365860.531727459	69059.410104103838
2.218750	10280177.391652036	68273.426839984648
2.225000	10183635.615686664	67479.820887956113
2.231250	10077230.866097273	66682.073062693598
2.237500	9961810.7578720525	65881.633399259168
2.243750	9838060.5090064146	65078.041174354206
2.250000	9706494.163409844	64269.087111298766
2.256250	9567451.3864344191	63451.011202227259
2.262500	9421099.8330251779	62618.728663098096
2.268750	9295538.6828717887	78424.681402639239
2.275000	9167318.7808788531	76729.724508728046
2.281250	9030746.5294262562	74987.061867552315
2.287500	8887243.7669479139	73204.915213481654
2.293750	8738056.7146639116	71390.344604024285
2.300000	8584233.8408562727	69549.322195899935
2.306250	8426610.1731106266	67686.833885407075
2.312500	8265798.0585239781	65807.001191513787
2.318750	8102184.3718783781	63913.215469478819
2.325000	7935934.1717806282	62008.276682580756
2.331250	7767000.804767983	60094.529537139118
2.337500	7584187.9610642102	64310.859195107929
2.343750	7435649.4965473833	62540.502822136594
2.350000	7283112.4862072971	60716.714677138545
2.356250	7127541.2823424516	58852.081966292026
2.362500	6969734.9719717111	56958.186531020183
2.368750	6810317.5787633639	55045.36235109566
2.375000	6649733.6552685555	53122.506950275681
2.381250	6488249.2654588278	51196.958086115759
2.387500	6325958.3575679855	49274.4466983194
2.393750	6162794.5272382051	47359.135631583144
2.400000	5998548.1709703216	45453.751066389777
2.406250	5896271.893966849	38118.747740241
