#List of files for average calculation
#C:\D+_tests\Symmetry\GPU\WH\Manual_Symmetry_Implicit_No_Charges_With_Hydration_VEGAS\Manual_Symmetry_Implicit_No_Charges_With_Hydration_VEGAS_1
#C:\D+_tests\Symmetry\GPU\WH\Manual_Symmetry_Implicit_No_Charges_With_Hydration_VEGAS\Manual_Symmetry_Implicit_No_Charges_With_Hydration_VEGAS_2
#C:\D+_tests\Symmetry\GPU\WH\Manual_Symmetry_Implicit_No_Charges_With_Hydration_VEGAS\Manual_Symmetry_Implicit_No_Charges_With_Hydration_VEGAS_3
#C:\D+_tests\Symmetry\GPU\WH\Manual_Symmetry_Implicit_No_Charges_With_Hydration_VEGAS\Manual_Symmetry_Implicit_No_Charges_With_Hydration_VEGAS_4
#C:\D+_tests\Symmetry\GPU\WH\Manual_Symmetry_Implicit_No_Charges_With_Hydration_VEGAS\Manual_Symmetry_Implicit_No_Charges_With_Hydration_VEGAS_5
#C:\D+_tests\Symmetry\GPU\WH\Manual_Symmetry_Implicit_No_Charges_With_Hydration_VEGAS\Manual_Symmetry_Implicit_No_Charges_With_Hydration_VEGAS_6
#C:\D+_tests\Symmetry\GPU\WH\Manual_Symmetry_Implicit_No_Charges_With_Hydration_VEGAS\Manual_Symmetry_Implicit_No_Charges_With_Hydration_VEGAS_7
#C:\D+_tests\Symmetry\GPU\WH\Manual_Symmetry_Implicit_No_Charges_With_Hydration_VEGAS\Manual_Symmetry_Implicit_No_Charges_With_Hydration_VEGAS_8
#C:\D+_tests\Symmetry\GPU\WH\Manual_Symmetry_Implicit_No_Charges_With_Hydration_VEGAS\Manual_Symmetry_Implicit_No_Charges_With_Hydration_VEGAS_9
#C:\D+_tests\Symmetry\GPU\WH\Manual_Symmetry_Implicit_No_Charges_With_Hydration_VEGAS\Manual_Symmetry_Implicit_No_Charges_With_Hydration_VEGAS_10
#Average Chi square (Sigma units): 2.0840212056393
#Sigma Chi square: 1.0161761571685
#Calculation was done on GPU
q [nm^-1]	Intensity [A.U]	Sigma [A.U]
0.000000	62833252731.897842	5.0862630208333331e-006
0.006250	62857655298.292038	32019.767636452038
0.012500	62746044263.743042	684958.31739750819
0.018750	62502277527.782242	2162580.2926496216
0.025000	62131486191.606178	681621.971667737
0.031250	61635765954.656921	1680418.4107720265
0.037500	61022555783.274071	268005.1200381383
0.043750	60294916309.37722	380586.27291782229
0.050000	59458856711.493004	1385505.4040550888
0.056250	58520207808.942421	5304681.1747302981
0.062500	57488649713.519753	889057.45127694216
0.068750	56421375857.721939	993058.47746087285
0.075000	55364541801.759048	5368967.4201006619
0.081250	54218289648.688187	1165287.9581500164
0.087500	52988376545.208839	1274919.0245034632
0.093750	51683745318.350449	5894441.2780917203
0.100000	50321995430.574287	4246255.740735543
0.106250	48906850502.652885	3594460.2115278267
0.112500	47446867116.146179	7675833.3767678961
0.118750	45957223850.736427	5478481.8413823517
0.125000	44442702714.263588	2208944.422809375
0.131250	42909172784.523178	2379624.5586858159
0.137500	41414164243.784981	3868773.1112972889
0.143750	39919447804.949005	7336541.0207437538
0.150000	38408350075.929031	8669518.1018814929
0.156250	36888277200.992043	6015031.5763383778
0.162500	35378089158.656235	4595106.6077113263
0.168750	33872565208.168251	4844010.5944303852
0.175000	32387037925.766975	5070660.8350098366
0.181250	30924588813.884686	5175698.7121454077
0.187500	29501596864.380505	5084308.4959388012
0.193750	28107041647.185596	11793062.581772294
0.200000	26765100196.885033	5225688.462856276
0.206250	25483620624.068794	4019399.0026503666
0.212500	24233083515.523243	5430020.7400728948
0.218750	23022990029.114826	4123979.7016491811
0.225000	21851477974.750137	4174246.2253762786
0.231250	20721033421.980721	7883995.4492227109
0.237500	19639896381.640202	5467947.6822586339
0.243750	18605713330.231552	4313643.6124446811
0.250000	17617951084.275265	3604865.4244602364
0.256250	16680718212.425461	4387016.0795798181
0.262500	15791119843.669724	4413284.1370508019
0.268750	14949241700.162746	4308433.066775389
0.275000	14150060348.365911	4149216.2167454194
0.281250	13391502153.540846	3367577.7578483522
0.287500	12671263925.439558	3527538.2532822266
0.293750	11991144838.011639	2813211.4560036319
0.300000	11346936994.979935	2521067.5542344344
0.306250	10739232597.96497	2669069.6115651624
0.312500	10164734128.507957	2315216.3136507901
0.318750	9623901455.1486092	2774495.110847943
0.325000	9113164226.9863186	2824125.2062436067
0.331250	8631055794.8995552	2924984.7126570274
0.337500	8176174081.6488247	4638841.3874231167
0.343750	7744964775.672739	4432813.8396295123
0.350000	7335558498.5743866	4522112.0350438235
0.356250	6946707284.95714	4206830.1155811697
0.362500	6576709115.5740614	4225513.3204997024
0.368750	6224770604.5988302	4133962.6687306049
0.375000	5889779508.4628887	4393724.0364686521
0.381250	5570547589.8970098	3732977.2895988389
0.387500	5265908778.6811886	3657350.9243524708
0.393750	4975178150.5708714	3567679.7316095275
0.400000	4697652390.2667456	3350513.8236255585
0.406250	4433803581.3691196	2994191.5838123378
0.412500	4180699208.8429122	2964256.2494963035
0.418750	3937384223.4283004	2758444.4749294436
0.425000	3703804375.9430189	2709180.9812060338
0.431250	3479789968.0689306	2656780.3709706548
0.437500	3264927305.4115973	2642431.0545776896
0.443750	3059348122.2294631	2676542.8318493436
0.450000	2863036164.2580876	1988424.0034839665
0.456250	2676070168.8256807	2682339.625158045
0.462500	2498831041.4949622	2517114.6997753368
0.468750	2331144461.3743525	1138041.7188074898
0.475000	2171808787.980453	1073873.4526485847
0.481250	2020310702.6328797	1087664.8363739613
0.487500	1876181803.3988132	1215085.109379116
0.493750	1740650219.5929482	989284.83143185289
0.500000	1612522155.2364571	763280.58688221406
0.506250	1492347333.3340888	1251790.0562097144
0.512500	1380071683.5230279	1118044.621627308
0.518750	1275909134.8744748	1068726.4020128963
0.525000	1179318538.2629921	1040465.7167035731
0.531250	1090318886.3076603	937579.11142508383
0.537500	1008425718.1182092	1091752.6769064874
0.543750	932300079.71604478	1056237.7851507012
0.550000	862402515.85674834	947054.79447849584
0.556250	798309169.37124121	917157.98461212206
0.562500	739862442.23853981	842221.13308332057
0.568750	686770978.4639945	782895.83204281412
0.575000	638606452.87502956	679970.16060049192
0.581250	595166693.01534474	769714.83221836726
0.587500	555967587.69684863	644353.84275861271
0.593750	520705340.37379897	602679.13236935623
0.600000	488754727.98276722	586161.34003259882
0.606250	460346754.27495277	428061.10710710421
0.612500	434710650.7924093	385781.92787584331
0.618750	411478703.42194068	339184.61345785361
0.625000	390309797.34233016	374465.53474265378
0.631250	371034060.89210409	386777.1178275313
0.637500	353346953.84502602	332392.42864706676
0.643750	337018029.76483798	333485.45113016421
0.650000	321881836.43251699	360062.85767832765
0.656250	307657686.93535006	377445.48754848307
0.662500	294200768.71937382	397525.65977886331
0.668750	282190360.41860497	320885.24080031272
0.675000	270971432.29604197	297811.55920459935
0.681250	259987581.09229738	293415.60771854257
0.687500	249203718.79313141	244308.34625312948
0.693750	238623431.34471339	252540.46870027969
0.700000	228229488.74620485	254033.07238221684
0.706250	218056049.9663555	238748.13028008261
0.712500	208078197.51697415	222583.5248757622
0.718750	198400395.01397476	256064.41777470871
0.725000	188997968.64886823	229166.22166881076
0.731250	179970805.69095454	227472.42549021041
0.737500	171906616.90260783	235897.16816213611
0.743750	164372328.10703689	224885.01852719279
0.750000	157005961.99848032	238979.85897144943
0.756250	149834738.03189212	236066.29709099088
0.762500	143059418.01741502	200183.47703270422
0.768750	136612690.68580836	221579.93413369407
0.775000	130626366.71264522	201116.22224980357
0.781250	125079298.36291818	202444.81098817618
0.787500	120001817.85285878	203397.61416392692
0.793750	115410906.37551339	203070.26669517084
0.800000	111274639.95441131	207909.43492314802
0.806250	108157885.94907689	150583.34630836139
0.812500	105373167.24575575	155677.08378611531
0.818750	102849371.85617585	142137.46284298305
0.825000	100615539.21892324	139738.47631872931
0.831250	98663227.985627517	143842.75334523892
0.837500	96952686.455593139	148966.5176309518
0.843750	95439289.963908136	133680.99448547442
0.850000	94093967.932083577	141842.06176940317
0.856250	92873622.45019044	160456.50146769261
0.862500	91688260.358316228	151669.62349281937
0.868750	90826120.638555616	134909.35900089081
0.875000	90180176.684769139	133620.54300311051
0.881250	89408141.88023898	123691.0388470117
0.887500	88513802.928157583	124845.28468897963
0.893750	87461204.077882871	109558.7475491849
0.900000	86245111.179561958	104510.76196933404
0.906250	84865976.65000245	98711.02801292557
0.912500	83304597.568302602	92905.194438377497
0.918750	81565006.625167698	86839.115729116398
0.925000	79636900.41885452	82935.128338323542
0.931250	77532178.168951258	81202.711057048917
0.937500	75556727.373203278	151230.38595323617
0.943750	73556181.718959838	143918.64600156996
0.950000	71330019.090021446	138504.05630754118
0.956250	68915297.549350142	135109.11001586259
0.962500	66354314.885422088	125814.2157896452
0.968750	63720357.612951435	130315.471270232
0.975000	61035986.030279651	129662.79281805342
0.981250	58335567.547589265	130520.47172470245
0.987500	55669820.442478202	130019.32413529066
0.993750	53067026.197150424	129895.2972027456
1.000000	50558974.740773126	129371.35223973839
1.006250	48380956.485403202	77653.176679401935
1.012500	46277214.947118469	73717.449653969757
1.018750	44259594.662436455	70240.653395736837
1.025000	42359978.231297061	67053.723355057082
1.031250	40622006.92604591	62122.605182448249
1.037500	39054633.098090038	62563.843813928026
1.043750	37682338.292719267	60499.490173680148
1.050000	36507250.168840989	57861.618237380848
1.056250	35528138.733507678	54363.84727485184
1.062500	34744683.770200521	58996.860907490154
1.068750	34204153.045867115	56631.198108220575
1.075000	33880709.343633905	60039.339060481369
1.081250	33690347.956988052	63408.872210019144
1.087500	33623938.575928077	66665.327049504005
1.093750	33668461.581475593	69766.429965122559
1.100000	33807123.989620753	72693.268024789169
1.106250	34019605.930837393	75440.580982043801
1.112500	34282262.583086513	78177.670015259064
1.118750	34569322.607509241	80388.311916316816
1.125000	34851989.418578506	82567.195854127378
1.131250	35100574.505414449	84511.919839158407
1.137500	35400400.166169263	68835.827559278841
1.143750	35730444.14550291	68049.856724851474
1.150000	35977043.554724976	66966.545903093793
1.156250	36129626.720426433	65788.142691730696
1.162500	36178476.554378927	64484.639078187822
1.168750	36116004.164531931	63085.469271762995
1.175000	35936386.612409323	61620.541702260278
1.181250	35635487.5198671	60119.115490813419
1.187500	35210800.558461234	58573.10656534705
1.193750	34661628.009554967	57113.305544203919
1.200000	33988692.778785363	55652.332692987329
1.206250	33409144.405191649	89110.679552474976
1.212500	32690775.581179749	86752.424489823781
1.218750	31850326.691190176	84043.783438834958
1.225000	30903397.258618455	81934.516819506724
1.231250	29877160.697726209	77903.2837895868
1.237500	28782555.713559944	74613.935322908961
1.243750	27640937.546079069	71255.498162741802
1.250000	26470127.875771604	67871.637537601928
1.256250	25282923.50841327	65964.520813310999
1.262500	24105608.19006893	61151.566902451836
1.268750	22980304.052634768	42242.017777827248
1.275000	21933386.144992463	41822.935912830428
1.281250	20893305.884641279	41103.84086993926
1.287500	19878490.249667697	40085.578159294557
1.293750	18904945.643848684	38832.699644164662
1.300000	17985923.907053337	37479.884800600943
1.306250	17131591.435791541	36232.646615705504
1.312500	16348545.550505111	36195.333251625372
1.318750	15641747.597430315	35122.619529187541
1.325000	15010380.533590049	35763.068932419046
1.331250	14452126.478771364	37367.334194310737
1.337500	13991441.049430877	31648.130431118727
1.343750	13614109.365830744	30636.404514490223
1.350000	13296514.664411785	30043.610481090811
1.356250	13036990.598057803	29870.278083895246
1.362500	12832080.879983775	30097.405469931633
1.368750	12676580.29383244	30687.289705765204
1.375000	12563655.639486974	31586.23855570579
1.381250	12484968.49043096	32728.32552408192
1.387500	12430862.355186451	34039.087552360565
1.393750	12390587.399802726	35438.543451116951
1.400000	12352564.414627995	36843.590645840544
1.406250	12387001.927648421	27656.682595516584
1.412500	12411418.058718054	26865.098988166617
1.418750	12424860.729830686	26205.291361167379
1.425000	12426881.588865075	25809.651238382128
1.431250	12409270.378284905	25189.800457912203
1.437500	12374325.965134516	24808.513409469953
1.443750	12318033.125347331	24487.279050514455
1.450000	12238249.870092126	24206.740274123822
1.456250	12132950.339264987	23958.718215383324
1.462500	12000799.215295618	23693.074558762382
1.468750	11876013.739717601	25561.782156378362
1.475000	11764605.774488185	25549.08105551502
1.481250	11620607.873723932	25671.689471077363
1.487500	11449902.827188905	25892.797462276292
1.493750	11258486.81011576	26180.426576476264
1.500000	11052268.911011325	26508.337630330283
1.506250	10836867.674244069	26856.260617542648
1.512500	10617452.609819002	27209.597773877609
1.518750	10398617.0159558	27558.796160627178
1.525000	10184258.810046945	27898.55656379498
1.531250	9977533.0701879319	28226.857639325477
1.537500	9813506.9980342928	18166.780388893763
1.543750	9673241.7988006584	18686.713647689314
1.550000	9537795.7956087142	20501.273561617665
1.556250	9414898.1203755848	19988.326076665573
1.562500	9306820.4794768654	20777.771721698246
1.568750	9217838.3866156582	21660.553642351428
1.575000	9150378.0938127935	22633.973717051267
1.581250	9105739.8077398222	23692.572760587333
1.587500	9084094.6453401186	24828.273184543839
1.593750	9084523.1341781113	26030.403380023596
1.600000	9105079.0808811858	27285.990781804587
1.606250	9200586.9378261045	30457.752535183834
1.612500	9293621.8472986799	31351.171106452421
1.618750	9399473.3434045464	32330.657853614546
1.625000	9516330.126583185	33485.363894959955
1.631250	9645221.3181868345	34433.592560333942
1.637500	9781593.1111348122	35515.493047301279
1.643750	9923839.8864596765	36570.076290394994
1.650000	10069042.68241881	37594.648510951534
1.656250	10213732.261707027	38373.258734493276
1.662500	10354994.496956261	39432.319673590231
1.668750	10497230.051701548	21387.724574161759
1.675000	10667196.405312464	21080.294602063223
1.681250	10826476.98817705	20883.229594588374
1.687500	10974006.833079854	20963.235387321231
1.693750	11109597.446478428	21250.145697544001
1.700000	11232291.432669828	21818.765106366878
1.706250	11341759.067949107	22647.014407259976
1.712500	11437591.024071749	23717.3723138245
1.718750	11519411.416812232	24999.409256702882
1.725000	11586851.595346007	26449.591151085624
1.731250	11639709.76198604	28036.912150492837
1.737500	11721626.040905405	39853.3367473342
1.743750	11791749.287844181	39848.657244436006
1.750000	11846710.597183187	39742.764280876152
1.756250	11888390.863715868	39552.810721883601
1.762500	11918649.680450877	39297.471605394312
1.768750	11939205.799495872	38994.868048154596
1.775000	11951583.883595988	38662.601036888816
1.781250	11957029.670263909	38299.49176124666
1.787500	11956652.676968712	37975.142169232728
1.793750	11950893.129673708	37576.503825701468
1.800000	11940703.629560689	37352.913549578807
1.806250	11975898.711595532	42796.482106431286
1.812500	11996017.720115704	43204.572529542733
1.818750	12012972.030332837	43648.25254358221
1.825000	12028378.965660045	44098.091354171331
1.831250	12043683.441129353	44665.540228221478
1.837500	12059773.52256689	45212.354501027963
1.843750	12077041.044086553	45806.553899189938
1.850000	12095616.179927792	46426.127462057098
1.856250	12115514.665440442	47079.073011168715
1.862500	12134988.431342026	47683.244032332746
1.868750	12159099.972275121	31777.547101102045
1.875000	12213985.167399082	32529.363937710652
1.881250	12268763.117078219	33301.472426504915
1.887500	12323567.400034409	34242.925353841863
1.893750	12378746.864309296	35149.236896653762
1.900000	12434005.783535026	36049.008844633376
1.906250	12489107.640401414	36905.049077488664
1.912500	12543223.10170633	37808.422536460268
1.918750	12595210.103129786	38317.973569754977
1.925000	12644288.474931106	38942.903773286642
1.931250	12688796.576417226	39359.626810277798
1.937500	12770985.364390265	28978.053696222956
1.943750	12845622.069453835	28481.342094559051
1.950000	12916673.729690334	28023.114143430434
1.956250	12984674.238572216	27626.449609927557
1.962500	13049967.45708156	27314.86002323261
1.968750	13112670.583740111	27110.055862388857
1.975000	13172659.177844055	27029.612993352315
1.981250	13229554.617454696	27084.997078500968
1.987500	13282720.002890902	27280.241077005623
1.993750	13331270.172451824	27611.551375652591
2.000000	13374080.066590596	28067.822556742813
2.006250	13442864.129692629	25832.32918838381
2.012500	13517928.079548124	26844.156584787233
2.018750	13589002.25903205	27821.545410702314
2.025000	13656537.06995666	28633.247203145704
2.031250	13720469.923031557	29990.041906056762
2.037500	13780618.755520377	31231.437494109901
2.043750	13836438.931664426	32540.6151785765
2.050000	13887018.783339638	33906.560930994063
2.056250	13931370.341604253	35417.065415314712
2.062500	13967185.043398842	36758.134820801024
2.068750	14020054.406949496	53866.247343100345
2.075000	14083126.315681383	53194.745792421076
2.081250	14137452.298608139	52491.073178477323
2.087500	14183062.715792229	51678.592176709521
2.093750	14220512.831913631	51059.117967546015
2.100000	14248904.174968418	50359.344532271978
2.106250	14267728.040940547	49549.120864643599
2.112500	14276539.928174889	49071.427582639852
2.118750	14273742.004438102	48418.380003069717
2.125000	14258224.223924544	47828.182605510527
2.131250	14228396.27104393	47260.372355483152
2.137500	14214071.26108114	47883.355327639918
2.143750	14203348.815597216	48020.550559614152
2.150000	14177800.622941623	47993.963527375927
2.156250	14137958.391301066	48119.712778717061
2.162500	14083893.158485565	48341.403962880344
2.168750	14016003.004323591	48615.604372837843
2.175000	13934371.413021868	48925.383242452524
2.181250	13838905.540681433	49251.283785857675
2.187500	13729113.845975284	49406.275804816018
2.193750	13605349.33884047	49865.671507418876
2.200000	13466320.03487063	50109.776220095067
2.206250	13334917.173709661	35709.99087581817
2.212500	13213250.334549319	34947.664826513879
2.218750	13076991.480362216	34171.516611000683
2.225000	12926992.416105315	33327.662017234034
2.231250	12766698.11928314	32700.966498715927
2.237500	12595223.633999204	32057.563183966209
2.243750	12414194.016146962	31505.981908574897
2.250000	12224355.39237738	31050.770935548218
2.256250	12026079.185406515	30905.682051153839
2.262500	11819917.693692435	30434.16778141147
2.268750	11625651.340052836	36805.755437659587
2.275000	11442664.118157325	36480.187813753408
2.281250	11250250.635066625	36277.855255870389
2.287500	11050151.613528268	36210.207849052196
2.293750	10843875.499498717	36284.550842598263
2.300000	10632698.276097883	36503.303582103363
2.306250	10417590.643279132	36863.333674444788
2.312500	10199317.922571044	37357.510333514852
2.318750	9978156.9832970165	37963.086033514934
2.325000	9754377.6002604086	38663.905567640642
2.331250	9527832.9454927109	39427.920870412352
2.337500	9326693.4074667599	22555.373446400055
2.343750	9124255.3640330397	22486.154533515128
2.350000	8917287.716181308	22521.036753418281
2.356250	8706791.2100922409	22314.9401031452
2.362500	8493779.8162560686	22325.642245976083
2.368750	8279166.886352961	22284.152105888039
2.375000	8063475.1173862796	22242.080481394405
2.381250	7847073.8926699264	22192.930867785908
2.387500	7630127.6077703983	22124.615627914445
2.393750	7412683.6049769325	22041.3554392408
2.400000	7194534.3561440287	21921.073435621805
2.406250	6986838.8074052017	34257.303207381774
2.412500	6788837.8796511739	33470.010018553694
2.418750	6588584.3296489306	32717.509436066048
2.425000	6387073.4974710792	31794.62453788775
2.431250	6185631.8867663275	31285.636857795071
2.437500	5984831.1195255872	30597.605399295746
2.443750	5785516.3235097034	29917.438970284969
