#List of files for average calculation
#C:\Lea\runGPU\2\1Sphere_GPU_MC\1Sphere_GPU_MC_1
#C:\Lea\runGPU\2\1Sphere_GPU_MC\1Sphere_GPU_MC_2
#C:\Lea\runGPU\2\1Sphere_GPU_MC\1Sphere_GPU_MC_3
#C:\Lea\runGPU\2\1Sphere_GPU_MC\1Sphere_GPU_MC_4
#C:\Lea\runGPU\2\1Sphere_GPU_MC\1Sphere_GPU_MC_5
#C:\Lea\runGPU\2\1Sphere_GPU_MC\1Sphere_GPU_MC_6
#C:\Lea\runGPU\2\1Sphere_GPU_MC\1Sphere_GPU_MC_7
#C:\Lea\runGPU\2\1Sphere_GPU_MC\1Sphere_GPU_MC_8
#C:\Lea\runGPU\2\1Sphere_GPU_MC\1Sphere_GPU_MC_9
#C:\Lea\runGPU\2\1Sphere_GPU_MC\1Sphere_GPU_MC_10
#Average Chi square (Sigma units): 0.70897320830423
#Sigma Chi square: 0.030330599950409
#Calculation was done on GPU
q [nm^-1]	Intensity [A.U]	Sigma [A.U]
0.000000	78763.829611537993	1.5339065479776179e-011
0.006250	78769.420027070926	1.5339065479776179e-011
0.012500	78773.529056084371	1.5339065479776179e-011
0.018750	78776.157670318586	1.5339065479776179e-011
0.025000	78777.306883343132	0
0.031250	78776.977750456412	1.5339065479776179e-011
0.037500	78775.17136858216	1.5339065479776179e-011
0.043750	78771.888876167926	1.5339065479776179e-011
0.050000	78767.13145308361	0
0.056250	78760.900320518544	1.5339065479776179e-011
0.062500	78753.196740880652	1.5339065479776179e-011
0.068750	78744.022017694399	1.5339065479776179e-011
0.075000	78733.377495498848	1.5339065479776179e-011
0.081250	78721.264559746269	0
0.087500	78707.684636701379	0
0.093750	78692.63919333856	1.5339065479776179e-011
0.100000	78676.129737241659	6.8598386248199921e-012
0.106250	78658.157816502062	1.5339065479776179e-011
0.112500	78638.725019617588	0
0.118750	78617.832975392041	1.5339065479776179e-011
0.125000	78595.483352833282	1.5339065479776179e-011
0.131250	78571.677861052347	0
0.137500	78546.418249163427	0
0.143750	78519.706306181877	1.4551915228366852e-011
0.150000	78491.543860924285	6.8598386248199921e-012
0.156250	78461.932781907948	1.5339065479776179e-011
0.162500	78430.874977248808	1.5339065479776179e-011
0.168750	78398.372394563165	0
0.175000	78364.427020865478	1.5339065479776179e-011
0.181250	78329.040882468602	1.5339065479776179e-011
0.187500	78292.216044883855	1.5339065479776179e-011
0.193750	78253.954612719957	9.701276818911234e-012
0.200000	78214.258729583467	0
0.206250	78173.130577979013	0
0.212500	78130.572379208737	0
0.218750	78086.586393272068	1.4551915228366852e-011
0.225000	78041.174918766847	1.5339065479776179e-011
0.231250	77994.340292789042	1.1881589029911644e-011
0.237500	77946.084890832921	1.5339065479776179e-011
0.243750	77896.411126691484	1.5339065479776179e-011
0.250000	77845.32145235753	1.4551915228366852e-011
0.256250	77792.818357922981	1.3719677249639984e-011
0.262500	77738.904371480734	1.5339065479776179e-011
0.268750	77683.582059024731	0
0.275000	77626.854024350541	0
0.281250	77568.722908956741	1.5339065479776179e-011
0.287500	77509.191391945307	1.7489225504027317e-011
0.293750	77448.262189922898	1.5339065479776179e-011
0.300000	77385.938056902218	1.5339065479776179e-011
0.306250	77322.221784201873	1.4551915228366852e-011
0.312500	77257.116200349337	1.5339065479776179e-011
0.318750	77190.624170981086	1.5339065479776179e-011
0.325000	77122.748598744045	9.701276818911234e-012
0.331250	77053.492423197487	0
0.337500	76990.999245233179	1.5339065479776179e-011
0.343750	76931.156771506969	1.4551915228366852e-011
0.350000	76869.890340937069	0
0.356250	76807.20483951128	1.5339065479776179e-011
0.362500	76743.105188817121	1.4551915228366852e-011
0.368750	76677.596345746293	1.9402553637822468e-011
0.375000	76610.683302199221	1.4551915228366852e-011
0.381250	76542.37108478944	1.283358293131746e-011
0.387500	76472.664754549754	0
0.393750	76401.569406638606	1.5339065479776179e-011
0.400000	76329.090170046766	1.5339065479776179e-011
0.406250	76255.232207305293	1.5339065479776179e-011
0.412500	76180.000714193549	0
0.418750	76103.400919448308	1.5339065479776179e-011
0.425000	76025.438084473382	0
0.431250	75946.11750304942	0
0.437500	75865.44450104564	0
0.443750	75783.424436130605	1.283358293131746e-011
0.450000	75700.062697484609	1.4551915228366852e-011
0.456250	75615.364705512577	1.5339065479776179e-011
0.462500	75529.335911557821	1.5339065479776179e-011
0.468750	75441.981797615255	6.8598386248199921e-012
0.475000	75353.307876047169	1.5339065479776179e-011
0.481250	75263.319689298398	0
0.487500	75172.022809612288	1.5339065479776179e-011
0.493750	75079.422838746526	1.5339065479776179e-011
0.500000	74985.525407692519	1.5339065479776179e-011
0.506250	74890.336176391502	2.566716586263492e-011
0.512500	74793.860833454193	1.5339065479776179e-011
0.518750	74696.105095880004	4.850638409455617e-012
0.525000	74597.074708776578	1.5339065479776179e-011
0.531250	74496.775445080872	1.5339065479776179e-011
0.537500	74395.2131052802	1.5339065479776179e-011
0.543750	74292.393517134042	1.5339065479776179e-011
0.550000	74188.322535396816	1.5339065479776179e-011
0.556250	74083.006041541143	1.283358293131746e-011
0.562500	73976.449943481464	0
0.568750	73868.660175298442	1.5339065479776179e-011
0.575000	73759.64269696422	0
0.581250	73649.403494068698	1.5339065479776179e-011
0.587500	73537.948577545307	1.0846357217814219e-011
0.593750	73425.283983398593	1.5339065479776179e-011
0.600000	73311.415772431341	1.5339065479776179e-011
0.606250	73196.350029973575	6.8598386248199921e-012
0.612500	73080.092865611339	1.5339065479776179e-011
0.618750	72962.650412916919	1.5339065479776179e-011
0.625000	72844.028829177711	1.5339065479776179e-011
0.631250	72724.234295128947	1.5339065479776179e-011
0.637500	72603.273014684193	0
0.643750	72481.151214668396	1.5339065479776179e-011
0.650000	72357.875144549864	1.5339065479776179e-011
0.656250	72233.451076174839	1.5339065479776179e-011
0.662500	72107.885303501418	1.5339065479776179e-011
0.668750	71984.842161672757	0
0.675000	71867.917827422309	1.5339065479776179e-011
0.681250	71749.769891125135	1.5339065479776179e-011
0.687500	71630.406480978258	1.5339065479776179e-011
0.693750	71509.83574511898	1.5339065479776179e-011
0.700000	71388.065851179053	1.5339065479776179e-011
0.706250	71265.104985840837	0
0.712500	71140.961354394662	1.5339065479776179e-011
0.718750	71015.643180298721	1.5339065479776179e-011
0.725000	70889.158704739282	1.5339065479776179e-011
0.731250	70761.516186194247	0
0.737500	70632.723899996941	1.283358293131746e-011
0.743750	70502.790137901902	0
0.750000	70371.723207653282	4.850638409455617e-012
0.756250	70239.531432553194	0
0.762500	70106.223151033279	0
0.768750	69971.806716227162	1.5339065479776179e-011
0.775000	69836.290495544425	1.5339065479776179e-011
0.781250	69699.68287024759	1.283358293131746e-011
0.787500	69561.99223502753	1.5339065479776179e-011
0.793750	69423.226997585458	1.5339065479776179e-011
0.800000	69283.39557821113	1.5339065479776179e-011
0.806250	69142.506409367765	0
0.812500	69000.567935274565	0
0.818750	68857.588611493091	1.5339065479776179e-011
0.825000	68713.576904515285	0
0.831250	68568.541291351765	0
0.837500	68422.490259123253	1.5339065479776179e-011
0.843750	68275.432304653121	0
0.850000	68127.37593406091	0
0.856250	67978.329662358869	1.5339065479776179e-011
0.862500	67828.302013049004	0
0.868750	67677.301517722342	1.5339065479776179e-011
0.875000	67525.336715659345	4.850638409455617e-012
0.881250	67372.416153433063	1.5339065479776179e-011
0.887500	67218.548384512556	1.5339065479776179e-011
0.893750	67063.741968868999	0
0.900000	66908.005472582721	1.5339065479776179e-011
0.906250	66751.347467452884	0
0.912500	66593.77653060756	1.5339065479776179e-011
0.918750	66435.30124411649	0
0.925000	66275.93019460504	0
0.931250	66115.671972869677	1.5339065479776179e-011
0.937500	65954.535173495664	0
0.943750	65792.528394476059	1.5339065479776179e-011
0.950000	65629.660236831798	1.0846357217814219e-011
0.956250	65465.939304234562	6.4167914656587299e-012
0.962500	65301.374202630795	6.8598386248199921e-012
0.968750	65135.973539867206	2.4253192047278085e-012
0.975000	64969.745925317475	1.5339065479776179e-011
0.981250	64802.699969512425	0
0.987500	64634.844283769373	0
0.993750	64466.187479825559	0
1.000000	64296.738169470642	7.6695327398880897e-012
1.006250	64135.561527107042	7.6695327398880897e-012
1.012500	63973.473873064075	0
1.018750	63810.48547745157	1.5339065479776179e-011
1.025000	63646.606608385206	1.5339065479776179e-011
1.031250	63481.847531463063	1.1375755420457741e-011
1.037500	63316.21850924824	7.6695327398880897e-012
1.043750	63149.729800750574	0
1.050000	62982.391660914538	7.6695327398880897e-012
1.056250	62814.214340107908	0
1.062500	62645.208083614576	4.850638409455617e-012
1.068750	62475.383131128838	7.6695327398880897e-012
1.075000	62304.749716253995	0
1.081250	62133.318066002452	0
1.087500	61961.098400300718	4.2007760871611079e-012
1.093750	61788.10093149438	0
1.100000	61614.335863858127	0
1.106250	61439.813393108707	6.4167914656587299e-012
1.112500	61264.543705918317	1.5339065479776179e-011
1.118750	61088.53697943435	0
1.125000	60911.803380799232	6.8598386248199921e-012
1.131250	60734.353066674506	7.6695327398880897e-012
1.137500	60556.196182766929	0
1.143750	60377.342863358368	0
1.150000	60197.803230837642	7.6695327398880897e-012
1.156250	60017.58739523626	7.6695327398880897e-012
1.162500	59836.70545376536	7.6695327398880897e-012
1.168750	59655.16749035813	1.3503605836570743e-011
1.175000	59472.983575211707	0
1.181250	59290.163764334968	1.5339065479776179e-011
1.187500	59106.718099097619	9.9998472569317785e-012
1.193750	58922.656605782453	2.4253192047278085e-012
1.200000	58737.989295140767	0
1.206250	58552.726161949606	0
1.212500	58366.87718457343	1.5339065479776179e-011
1.218750	58180.452324527709	7.6695327398880897e-012
1.225000	57993.461526045183	8.4015521743222159e-012
1.231250	57805.9147156455	1.5339065479776179e-011
1.237500	57617.821801707498	4.850638409455617e-012
1.243750	57429.192674044243	0
1.250000	57240.037203481697	7.6695327398880897e-012
1.256250	57050.365241438572	7.6695327398880897e-012
1.262500	56860.18661951086	1.5339065479776179e-011
1.268750	56669.511149058162	0
1.275000	56478.348620793433	0
1.281250	56286.708804374663	0
1.287500	56094.601448000802	7.6695327398880897e-012
1.293750	55902.036278009429	0
1.300000	55709.022998477551	7.6695327398880897e-012
1.306250	55515.571290825959	0
1.312500	55321.690813424924	7.6695327398880897e-012
1.318750	55127.391201204635	0
1.325000	54932.682065267043	6.8598386248199921e-012
1.331250	54737.572992501126	0
1.337500	54546.630950162114	0
1.343750	54357.459306015298	0
1.350000	54167.764738567013	0
1.356250	53977.55826678178	4.850638409455617e-012
1.362500	53786.850883377352	0
1.368750	53595.653554314995	7.6695327398880897e-012
1.375000	53403.977218293221	7.6695327398880897e-012
1.381250	53211.8327862468	7.6695327398880897e-012
1.387500	53019.231140848147	0
1.393750	52826.183136013584	1.5339065479776179e-011
1.400000	52632.699596413979	7.6695327398880897e-012
1.406250	52438.791316988136	7.2759576141834259e-012
1.412500	52244.469062461292	7.6695327398880897e-012
1.418750	52049.743566867139	6.4167914656587299e-012
1.425000	51854.625533073202	0
1.431250	51659.125632311705	8.7446127520136587e-012
1.437500	51463.254503713273	7.6695327398880897e-012
1.443750	51267.022753843914	1.0846357217814219e-011
1.450000	51070.44095624856	0
1.456250	50873.519650995731	0
1.462500	50676.269344227447	3.429919312409996e-012
1.468750	50478.700507713642	7.6695327398880897e-012
1.475000	50280.823578409625	7.6695327398880897e-012
1.481250	50082.648958017526	6.8598386248199921e-012
1.487500	49884.187012552633	0
1.493750	49685.448071912724	7.6695327398880897e-012
1.500000	49486.442429451956	7.6695327398880897e-012
1.506250	49287.180341558174	2.4253192047278085e-012
1.512500	49087.672027235043	0
1.518750	48887.927667687298	0
1.525000	48687.9574059105	7.6695327398880897e-012
1.531250	48487.771346284186	7.6695327398880897e-012
1.537500	48287.379554170293	3.429919312409996e-012
1.543750	48086.792055513652	7.2759576141834259e-012
1.550000	47886.018836448195	7.6695327398880897e-012
1.556250	47685.069842906079	7.2759576141834259e-012
1.562500	47483.954980230774	0
1.568750	47282.684112795527	7.6695327398880897e-012
1.575000	47081.267063623585	0
1.581250	46879.713614014145	7.6695327398880897e-012
1.587500	46678.033503171682	7.6695327398880897e-012
1.593750	46476.236427838732	5.4231786089071094e-012
1.600000	46274.332041933856	6.8598386248199921e-012
1.606250	46072.329956192807	7.6695327398880897e-012
1.612500	45870.239737812801	7.6695327398880897e-012
1.618750	45668.070910103037	0
1.625000	45465.832952137047	2.4253192047278085e-012
1.631250	45263.535298409777	7.6695327398880897e-012
1.637500	45061.187338499461	4.850638409455617e-012
1.643750	44858.798416731748	9.701276818911234e-012
1.650000	44656.377831849328	0
1.656250	44453.934836685068	0
1.662500	44251.478637838438	7.6695327398880897e-012
1.668750	44050.532939865021	0
1.675000	43852.519980091543	4.2007760871611079e-012
1.681250	43654.370087149138	7.6695327398880897e-012
1.687500	43456.093645498957	7.6695327398880897e-012
1.693750	43257.700992593891	1.1881589029911644e-011
1.700000	43059.202418456684	7.6695327398880897e-012
1.706250	42860.608165261699	7.6695327398880897e-012
1.712500	42661.928426921761	7.6695327398880897e-012
1.718750	42463.173348680262	7.6695327398880897e-012
1.725000	42264.353026707424	0
1.731250	42065.477507701493	0
1.737500	41866.556788494556	9.701276818911234e-012
1.743750	41667.600815663413	0
1.750000	41468.619485144969	0
1.756250	41269.622641856244	7.6695327398880897e-012
1.762500	41070.620079319233	7.6695327398880897e-012
1.768750	40871.621539290878	4.850638409455617e-012
1.775000	40672.636711397077	4.2007760871611079e-012
1.781250	40473.675232771915	7.6695327398880897e-012
1.787500	40274.746687701852	7.6695327398880897e-012
1.793750	40075.860607273658	7.6695327398880897e-012
1.800000	39877.026469028504	5.940794514955822e-012
1.806250	39678.253696619584	0
1.812500	39479.551659474826	7.6695327398880897e-012
1.818750	39280.929672465099	7.6695327398880897e-012
1.825000	39082.396995575757	0
1.831250	38883.962833584395	7.6695327398880897e-012
1.837500	38685.636335742136	0
1.843750	38487.426595460471	7.2759576141834259e-012
1.850000	38289.342650002262	7.6695327398880897e-012
1.856250	38091.393480178194	0
1.862500	37893.58801004698	3.429919312409996e-012
1.868750	37695.935106621349	0
1.875000	37498.443579578074	0
1.881250	37301.122180973114	7.6695327398880897e-012
1.887500	37103.979604961052	7.6695327398880897e-012
1.893750	36907.024487519979	7.6695327398880897e-012
1.900000	36710.265406180282	7.6695327398880897e-012
1.906250	36513.710879758924	7.6695327398880897e-012
1.912500	36317.369368098	7.6695327398880897e-012
1.918750	36121.249271808316	7.6695327398880897e-012
1.925000	35925.358932017298	4.850638409455617e-012
1.931250	35729.706630122157	7.6695327398880897e-012
1.937500	35534.300587547579	7.6695327398880897e-012
1.943750	35339.14896550803	0
1.950000	35144.259864774773	0
1.956250	34949.641325448072	7.6695327398880897e-012
1.962500	34755.301326733599	7.6695327398880897e-012
1.968750	34561.247786723914	7.6695327398880897e-012
1.975000	34367.488562184495	7.6695327398880897e-012
1.981250	34174.0314483447	0
1.987500	33980.884178693406	0
1.993750	33788.05442477914	0
2.000000	33595.54979601525	7.6695327398880897e-012
2.006250	33405.753929166014	7.6695327398880897e-012
2.012500	33216.16346901597	0
2.018750	33026.787000507298	0
2.025000	32837.633047668125	6.4167914656587299e-012
2.031250	32648.710073331786	0
2.037500	32460.026478861277	3.8347663699440449e-012
2.043750	32271.590603878627	6.0632980118195219e-012
2.050000	32083.410725999107	3.8347663699440449e-012
2.056250	31895.495060570865	0
2.062500	31707.85176041918	0
2.068750	31520.488915595684	3.8347663699440449e-012
2.075000	31333.414553132978	0
2.081250	31146.636636803632	0
2.087500	30960.163066885019	3.8347663699440449e-012
2.093750	30774.001679928093	3.8347663699440449e-012
2.100000	30588.160248532171	7.6695327398880897e-012
2.106250	30402.646481124211	3.8347663699440449e-012
2.112500	30217.468021742818	7.6695327398880897e-012
2.118750	30032.632449827837	0
2.125000	29848.147280014709	3.8347663699440449e-012
2.131250	29664.019961933787	3.8347663699440449e-012
2.137500	29480.257880014404	0
2.143750	29296.868353294565	0
2.150000	29113.858635234668	0
2.156250	28931.235913537537	0
2.162500	28749.00730997225	3.208395732829365e-012
2.168750	28567.179880203541	0
2.175000	28385.760613626131	0
2.181250	28204.756433203984	0
2.187500	28024.174195314372	2.100388043580554e-012
2.193750	27844.020689597637	7.6695327398880897e-012
2.200000	27664.302638811067	2.100388043580554e-012
2.206250	27485.026698688285	3.8347663699440449e-012
2.212500	27306.199457803574	3.8347663699440449e-012
2.218750	27127.827437440988	7.6695327398880897e-012
2.225000	26949.917091468764	7.6695327398880897e-012
2.231250	26772.474806218532	7.6695327398880897e-012
2.237500	26595.506900369423	6.1833749757992154e-012
2.243750	26419.019624837521	3.8347663699440449e-012
2.250000	26243.019162670076	3.8347663699440449e-012
2.256250	26067.511628944492	4.6966104445739096e-012
2.262500	25892.503070672916	0
2.268750	25717.99946671131	3.8347663699440449e-012
2.275000	25544.006727673437	3.8347663699440449e-012
2.281250	25370.530695850528	3.8347663699440449e-012
2.287500	25197.577145135179	3.8347663699440449e-012
2.293750	25025.151780950753	4.6966104445739096e-012
2.300000	24853.260240185286	3.8347663699440449e-012
2.306250	24681.908091131048	3.8347663699440449e-012
2.312500	24511.100833428605	3.8347663699440449e-012
2.318750	24340.84389801597	2.4253192047278085e-012
2.325000	24171.142647082735	3.8347663699440449e-012
2.331250	24002.002374029376	3.8347663699440449e-012
2.337500	23833.887272035579	3.8347663699440449e-012
2.343750	23666.483752443128	3.8347663699440449e-012
2.350000	23499.550395440787	3.8347663699440449e-012
2.356250	23333.093155300212	3.8347663699440449e-012
2.362500	23167.117920509401	3.8347663699440449e-012
2.368750	23001.630513659515	3.8347663699440449e-012
2.375000	22836.636691337091	3.8347663699440449e-012
2.381250	22672.142144020825	3.8347663699440449e-012
2.387500	22508.152495982653	0
2.393750	22344.673305194327	0
2.400000	22181.710063237635	0
2.406250	22019.268195220357	0
2.412500	21857.353059696146	3.8347663699440449e-012
2.418750	21695.969948589427	0
2.425000	21535.124087125063	0
2.431250	21374.82063376252	3.8347663699440449e-012
2.437500	21215.064680134667	3.8347663699440449e-012
2.443750	21055.861250991849	0
2.450000	20897.215304149602	3.8347663699440449e-012
2.456250	20739.131730442223	0
2.462500	20581.615353680012	0
2.468750	20424.670930612181	3.8347663699440449e-012
2.475000	20268.303150893433	3.8347663699440449e-012
2.481250	20112.516637056131	0
2.487500	19957.3159444866	3.8347663699440449e-012
2.493750	19802.705561406296	4.3723063760068294e-012
2.500000	19648.689908857901	3.637978807091713e-012
2.506250	19495.273340695596	1.2126596023639042e-012
2.512500	19342.460143580305	0
2.518750	19190.254536980152	0
2.525000	19038.660673174276	3.8347663699440449e-012
2.531250	18887.682637262984	3.8347663699440449e-012
2.537500	18737.324447181301	3.8347663699440449e-012
2.543750	18587.590053717631	3.8347663699440449e-012
2.550000	18438.483340537579	3.8347663699440449e-012
2.556250	18290.008124211825	3.8347663699440449e-012
2.562500	18142.168154248702	0
2.568750	17994.967113132177	3.637978807091713e-012
2.575000	17848.408616363587	2.100388043580554e-012
2.581250	17702.496212508871	3.8347663699440449e-012
2.587500	17557.233383249844	3.8347663699440449e-012
2.593750	17412.623543440688	0
2.600000	17268.67004116884	1.714959656204998e-012
2.606250	17125.37615782057	0
2.612500	16982.74510815151	3.8347663699440449e-012
2.618750	16840.78004036142	0
2.625000	16699.484036174195	0
2.631250	16558.860110922138	3.8347663699440449e-012
2.637500	16418.91121363515	3.8347663699440449e-012
2.643750	16279.640227134496	1.9173831849720224e-012
2.650000	16141.049968131261	1.9173831849720224e-012
2.656250	16003.143187329686	0
2.662500	15865.922569534978	1.9173831849720224e-012
2.668750	15729.230951378288	0
2.675000	15592.861685821354	1.9173831849720224e-012
