#List of files for average calculation
#C:\Lea\Anomalous\GPU\Two_atoms_Fe3+_anomalous_MC\Two_atoms_Fe3+_anomalous_MC_1
#C:\Lea\Anomalous\GPU\Two_atoms_Fe3+_anomalous_MC\Two_atoms_Fe3+_anomalous_MC_2
#C:\Lea\Anomalous\GPU\Two_atoms_Fe3+_anomalous_MC\Two_atoms_Fe3+_anomalous_MC_3
#C:\Lea\Anomalous\GPU\Two_atoms_Fe3+_anomalous_MC\Two_atoms_Fe3+_anomalous_MC_4
#C:\Lea\Anomalous\GPU\Two_atoms_Fe3+_anomalous_MC\Two_atoms_Fe3+_anomalous_MC_5
#C:\Lea\Anomalous\GPU\Two_atoms_Fe3+_anomalous_MC\Two_atoms_Fe3+_anomalous_MC_6
#C:\Lea\Anomalous\GPU\Two_atoms_Fe3+_anomalous_MC\Two_atoms_Fe3+_anomalous_MC_7
#C:\Lea\Anomalous\GPU\Two_atoms_Fe3+_anomalous_MC\Two_atoms_Fe3+_anomalous_MC_8
#C:\Lea\Anomalous\GPU\Two_atoms_Fe3+_anomalous_MC\Two_atoms_Fe3+_anomalous_MC_9
#C:\Lea\Anomalous\GPU\Two_atoms_Fe3+_anomalous_MC\Two_atoms_Fe3+_anomalous_MC_10
#Average Chi square (Sigma units): 1.6743511499749
#Sigma Chi square: 0.27466057206849
#Calculation was done on GPU
q [nm^-1]	Intensity [A.U]	Sigma [A.U]
0.000000	1627.8643674592845	2.396728981215028e-013
0.025000	1628.4841574164416	0.00081402069704403809
0.050000	1628.2961761309082	0.0014092181393120106
0.075000	1627.3030984935172	0.0019938800411752043
0.100000	1625.5085100290405	0.0028282175669420654
0.125000	1622.9169260046626	0.0041016447747101257
0.150000	1619.5338129542649	0.0058878379689590154
0.175000	1615.3656126185072	0.0082006827155472299
0.200000	1610.4197683007101	0.011039425330855022
0.225000	1604.7047536385494	0.014403027575147359
0.250000	1598.2301037915408	0.0182925500258025
0.275000	1591.0064490443369	0.022710815015176807
0.300000	1583.0455508258233	0.027661736468876378
0.325000	1574.3603401440171	0.033149754135677542
0.350000	1564.9649584367653	0.039179396236304107
0.375000	1554.874800838257	0.04575493236258741
0.400000	1544.1065618613211	0.052880082862963064
0.425000	1534.4443709913382	0.036087110031875501
0.450000	1524.1041945692932	0.040552779679591783
0.475000	1513.0911269779374	0.045370980963004078
0.500000	1501.4331849204536	0.050522629211030734
0.525000	1489.1589078260088	0.055986636103519789
0.550000	1476.2972512228757	0.061740592428349533
0.575000	1462.8774843875049	0.067761272759246427
0.600000	1448.929092269542	0.074025003666834982
0.625000	1434.4816816928087	0.080507932833861762
0.650000	1419.5648918322263	0.087186228195495791
0.675000	1404.2083089666917	0.094036228330369453
0.700000	1388.4413855079104	0.10103455893502754
0.725000	1372.2933633051728	0.10815822553671391
0.750000	1355.7932012260953	0.1153846892523047
0.775000	1338.9695070132973	0.12269193018065774
0.800000	1321.8504734170433	0.13005850143966383
0.825000	1305.8091649237408	0.1189665666171766
0.850000	1289.3839673648413	0.12500074274765069
0.875000	1272.6518505102183	0.13111321025867526
0.900000	1255.6479839410042	0.13728905683983889
0.925000	1238.4072766275854	0.1435136751647792
0.950000	1220.9643146419867	0.14977279569197524
0.975000	1203.3533010274425	0.1560525186637696
1.000000	1185.6079978251335	0.16233934512715012
1.025000	1167.7616702580915	0.16862020677265474
1.050000	1149.8470330722719	0.17488249448588766
1.075000	1131.8961990348059	0.18111408548477256
1.100000	1113.9406295894075	0.18730336895706282
1.125000	1096.0110876689682	0.19343927010900749
1.150000	1078.1375926652986	0.19951127256544918
1.175000	1060.3493775560637	0.20550943905605903
1.200000	1042.6748481888694	0.21142443032197034
1.225000	1025.9497375058868	0.13007512998042811
1.250000	1009.2539472593919	0.13280232170852685
1.275000	992.66462568179361	0.13542968542091643
1.300000	976.21350936876968	0.13794888046640388
1.325000	959.93111649452896	0.14035220669893886
1.350000	943.8466921385982	0.14263262519211961
1.375000	927.98815735376593	0.14478377672220741
1.400000	912.38206197519446	0.14679999793666318
1.425000	897.05354117068941	0.14867633513891049
1.450000	882.02627573213192	0.15040855559907063
1.475000	867.32245610806638	0.15199315630771768
1.500000	852.9627501774587	0.15342737007876361
1.525000	838.96627476460617	0.15470916890580724
1.550000	825.3505708952141	0.15583726446814963
1.575000	812.13158279363347	0.15681110566091816
1.600000	799.32364062125612	0.1576308730389327
1.625000	787.27861483769766	0.21927466192338646
1.650000	775.64875450178783	0.22097895754923211
1.675000	764.42647796448114	0.2225396198667958
1.700000	753.62831783543675	0.22395656420702445
1.725000	743.26905356329371	0.22523047794103368
1.750000	733.36169018188548	0.22636279591274991
1.775000	723.91744128126265	0.22735567077587523
1.800000	714.94571620352258	0.22821193814421675
1.825000	706.45411146344202	0.22893507651171965
1.850000	698.44840639392658	0.22952916190374092
1.875000	690.93256301626081	0.22999881733384089
1.900000	683.90873013517012	0.23034915716204182
1.925000	677.37725165869165	0.23058572654416801
1.950000	671.33667914284774	0.23071443627503521
1.975000	665.78378856113704	0.23074149341130012
2.000000	660.71360129881964	0.23067332819890987
2.025000	656.33928880547228	0.18257624279659557
2.050000	652.50542268835511	0.18053078166320929
2.075000	649.15646840641875	0.17838275901211254
2.100000	646.28970445500113	0.17614387850450966
2.125000	643.90073946998098	0.17382662320489981
2.150000	641.98352800442694	0.17144420496025856
2.175000	640.53038997689544	0.16901050267453829
2.200000	639.53203379139291	0.16653998799880398
2.225000	638.97758312897133	0.16404763693742053
2.250000	638.85460741098518	0.16154882591326161
2.275000	639.14915593400394	0.15905921104735887
2.300000	639.84579567636706	0.15659458970767398
2.325000	640.92765277639353	0.15417074393217275
2.350000	642.37645768224377	0.15180326608657163
2.375000	644.17259397343514	0.14950736811360238
2.400000	646.29515085400158	0.14729767696704413
2.425000	649.26851653940287	0.18383093569587561
2.450000	652.53121085108455	0.18222202882264441
2.475000	656.12763688767325	0.18060680105899951
2.500000	660.0406326148734	0.17899176713774304
2.525000	664.25197844263289	0.17738327404871115
2.550000	668.74243529941782	0.17578745407496971
2.575000	673.4917851549543	0.17421017898290664
2.600000	678.47887399145293	0.17265701625157662
2.625000	683.6816572233115	0.17113318830716176
2.650000	689.07724756528251	0.16964353579843353
2.675000	694.64196534913003	0.16819248597302591
2.700000	700.35139128875267	0.16678402721860608
2.725000	706.18042169378896	0.16542169082053976
2.750000	712.10332613169351	0.1641085408827799
2.775000	718.09380753829214	0.16284717327352508
2.800000	724.12506477681382	0.16163972428997248
2.825000	730.96630957461616	0.16990287411157476
2.850000	737.94714754952372	0.16988602173726713
2.875000	744.9787888390872	0.16990882508421495
2.900000	752.04034177555525	0.16995706417215797
2.925000	759.11066730963762	0.17001626747276877
2.950000	766.16841497328551	0.17007187413304831
2.975000	773.19206004809121	0.17010938658345712
3.000000	780.15994193929987	0.17011451247328996
3.025000	787.05030375542958	0.17007329553789069
3.050000	793.84133309351364	0.16997223554054713
3.075000	800.51120402995343	0.16979839792053505
3.100000	807.0381203169851	0.1695395141058802
3.125000	813.40035978475748	0.16918407376352315
3.150000	819.57631994903079	0.16872141040127842
3.175000	825.54456482448552	0.16814178190990595
3.200000	831.28387294364143	0.16743644768926949
3.225000	838.06930400806982	0.17040303372884158
3.250000	844.57244999631473	0.17084205578840025
3.275000	850.85590473826028	0.17133076509869141
3.300000	856.90611234403787	0.1718590883451315
3.325000	862.70987869483383	0.17241706219790479
3.350000	868.25438388644795	0.17299490200471687
3.375000	873.52719523066412	0.17358306236212551
3.400000	878.51628081440651	0.17417228994983433
3.425000	883.21002361668798	0.17475366921745378
3.450000	887.59723618336068	0.17531866160302445
3.475000	891.66717585965193	0.17585913904783618
3.500000	895.40956058050256	0.17636741259205871
3.525000	898.81458521869229	0.17683625684525467
3.550000	901.87293849076264	0.17725893108755195
3.575000	904.57582042073648	0.17762919773966651
3.600000	906.91496036162459	0.17794133884484806
3.625000	910.30454655434028	0.095567841817986096
3.650000	913.3090696682724	0.099126680277509413
3.675000	915.95579584951133	0.10283921143515817
3.700000	918.24469487213719	0.10668015097588561
3.725000	920.17623881177428	0.11062584369696329
3.750000	921.75138287983918	0.11465419219903993
3.775000	922.97154703922297	0.11874455083543953
3.800000	923.83859840142247	0.12287760444435851
3.825000	924.35483440510257	0.1270352449512917
3.850000	924.52296677611105	0.13120045411603257
3.875000	924.34610626892902	0.13535719714451089
3.900000	923.82774818955966	0.13949032946380049
3.925000	922.97175869986836	0.14358551739010803
3.950000	921.78236190335087	0.14762917242470916
3.975000	920.26412771235698	0.15160839834023393
4.000000	918.4219604967459	0.15551094993479603
4.025000	917.61508238178862	0.20360736413365124
4.050000	916.4614861958305	0.20294160319965399
4.075000	914.98610381226536	0.20232451328576062
4.100000	913.20132111523105	0.20177265211502932
4.125000	911.11968378903862	0.20130112173926162
4.150000	908.75385478020166	0.20092335802389552
4.175000	906.11657345313483	0.20065094283825399
4.200000	903.22061643952088	0.2004934450672845
4.225000	900.0787601813438	0.20045829600368795
4.250000	896.70374516759387	0.20055070373919906
4.275000	893.10824186464072	0.20077360984091536
4.300000	889.30481834027319	0.20112768996394642
4.325000	885.30590958140897	0.20161139822856672
4.350000	881.12378850547123	0.20222105340018559
4.375000	876.77053866543793	0.20295096316787536
4.400000	872.25802864855473	0.20379358143827025
4.425000	868.61420938060019	0.18933398954631001
4.450000	864.9048649702487	0.19029586599467119
4.475000	861.03589566499215	0.19137210997897749
4.500000	857.0251036793195	0.1925499444658498
4.525000	852.88985117589289	0.19381547833294216
4.550000	848.6470133776495	0.19515399886346077
4.575000	844.31293445663812	0.19655025788589675
4.600000	839.90338619959493	0.1979887445388348
4.625000	835.43352945024731	0.19945393927443938
4.650000	830.91787832835757	0.20093054532965865
4.675000	826.37026722549911	0.20240369535001168
4.700000	821.80382057756901	0.20385913214932616
4.725000	817.23092541403082	0.20528336358579022
4.750000	812.66320668390176	0.20666379231266424
4.775000	808.11150535846559	0.2079888217113452
4.800000	803.58585931072093	0.20924793963312646
4.825000	800.02318815849026	0.1709558230415765
4.850000	796.42710644246301	0.17352557275024066
4.875000	792.85637431467535	0.17609595539187281
4.900000	789.32549671605341	0.17865564449765883
4.925000	785.8480133478696	0.18119384879038994
4.950000	782.43646669790792	0.18370038602097646
4.975000	779.10237352898037	0.18616574159242344
5.000000	775.85619982981052	0.18858111324804253
5.025000	772.707339228259	0.19093844307310937
5.050000	769.66409486691532	0.19323043800031386
5.075000	766.73366474104046	0.19545057996181445
5.100000	763.92213049886948	0.19759312668956294
5.125000	761.23444970426351	0.19965310409172654
5.150000	758.67445156172494	0.2016262910115231
5.175000	756.24483610376296	0.20350919708826334
5.200000	753.94717684061811	0.20529903436608152
5.225000	752.54362640607701	0.19016353253938423
5.250000	751.26156232295875	0.1887206370941856
5.275000	750.11273817827941	0.18717537942480628
5.300000	749.10253086075647	0.18553166524276263
5.325000	748.23515983724042	0.18379379521211739
5.350000	747.51367972569028	0.18196648737491275
5.375000	746.93997630435206	0.18005489748806633
5.400000	746.51476595716224	0.17806463705643633
5.425000	746.23759855535275	0.1760017888233327
5.450000	746.10686377527622	0.17387291946466163
5.475000	746.11980085244102	0.17168508918514078
5.500000	746.27251177176038	0.16944585786997318
5.525000	746.55997789400953	0.16716328740364617
5.550000	746.97608001850472	0.16484593966625305
5.575000	747.51362188198675	0.16250286967533736
5.600000	748.16435709372138	0.16014361324050777
5.625000	749.65451990115048	0.1257543272128562
5.650000	751.31179746086536	0.12669631330571157
5.675000	753.08619465143261	0.12778862796090587
5.700000	754.97369162771724	0.12902628582694889
5.725000	756.96931343169183	0.13040268092200596
5.750000	759.06714295635425	0.1319096740550372
5.775000	761.26033668581249	0.13353770544844143
5.800000	763.541143211541	0.13527592674965913
5.825000	765.90092452480098	0.13711234644343445
5.850000	768.33018008523038	0.13903398299139416
5.875000	770.81857366561121	0.14102702066488787
5.900000	773.35496297278769	0.14307696385722374
5.925000	775.92743204477279	0.14516878667195757
5.950000	778.52332642400961	0.14728707550991865
5.975000	781.12929110680659	0.14941616330232954
6.000000	783.73131126894316	0.15154025481150737
6.025000	787.26874212033249	0.18247786819811107
6.050000	790.79829788869051	0.18328228697233137
6.075000	794.3298519978855	0.18401519464935634
6.100000	797.85475843611891	0.18467431405058951
6.125000	801.36385991066209	0.18525744376618791
6.150000	804.84750674361874	0.18576247035722837
6.175000	808.29557766002995	0.1861873814277803
6.200000	811.69750246834883	0.18653027965305916
6.225000	815.04228663325603	0.18678939789267388
6.250000	818.31853774083845	0.18696311548323749
6.275000	821.51449385612455	0.18704997580898108
6.300000	824.6180537729615	0.18704870528405809
6.325000	827.61680915626425	0.18695823380094542
6.350000	830.49807857660778	0.18677771677874333
6.375000	833.24894343717619	0.18650655887328582
6.400000	835.85628579307195	0.18614443943653652
6.425000	839.37671715606791	0.1836524126155531
6.450000	842.81168747851757	0.18296292206343456
6.475000	846.10935212777224	0.18217640105313093
6.500000	849.26314861699245	0.18130283095642241
6.525000	852.26642475979645	0.18035304732455476
6.550000	855.11244732361342	0.17933869429153912
6.575000	857.79441195964569	0.17827216999995527
6.600000	860.30545440944991	0.17716656149247006
6.625000	862.63866298812388	0.17603556749854954
6.650000	864.78709234411087	0.17489340756122318
6.675000	866.74377849561643	0.17375471612701038
6.700000	868.5017551436398	0.17263442045246821
6.725000	870.05407126161367	0.17154760163024274
6.750000	871.39380996165835	0.1705093385958423
6.775000	872.51410863745605	0.16953453575140545
6.800000	873.40818038372561	0.16863773575589455
6.825000	875.2682556298314	0.15905960079069939
6.850000	876.93180946408449	0.15984855638465473
6.875000	878.3738541457127	0.16065858944836214
6.900000	879.5947444383321	0.16148932057425039
6.925000	880.5949186602578	0.16233989870139065
6.950000	881.37488798606319	0.16320899619914142
6.975000	881.93522698687889	0.16409480982617089
7.000000	882.27656540942587	0.16499506733682087
7.025000	882.39958119379912	0.16590703944229507
7.050000	882.30499472998576	0.16682755672556054
7.075000	881.99356435312643	0.16775303105423486
7.100000	881.46608307751615	0.1686794809718383
7.125000	880.7233765693469	0.16960256053331804
7.150000	879.76630235819175	0.1705175910129815
7.175000	878.59575028722884	0.17141959494077721
7.200000	877.2126442022045	0.17230333190668834
7.225000	876.81226344768288	0.1873312416569114
7.250000	876.19901757487571	0.18780401635478436
7.275000	875.37609055918438	0.18824224260061392
7.300000	874.3512735843027	0.18864429224155102
7.325000	873.13229565943743	0.1890083519290269
7.350000	871.72679586157687	0.18933244610389133
7.375000	870.14229732727631	0.18961446409971411
7.400000	868.38618299396626	0.18985219072388207
7.425000	866.4656730907767	0.19004333966699427
7.450000	864.38780437888204	0.19018558910994576
7.475000	862.15941114136729	0.19027661889047251
7.500000	859.78710792261211	0.19031414863389567
7.525000	857.27727401719437	0.19029597625532754
7.550000	854.63603970831105	0.19022001629639429
7.575000	851.86927425572446	0.19008433758424406
7.600000	848.98257563322261	0.18988719973173002
7.625000	846.99888253555969	0.17309964562411706
7.650000	844.94552775098146	0.17276688773981169
7.675000	842.77351722122967	0.17243652853169861
7.700000	840.49442610347546	0.17210650204156577
7.725000	838.11941355011732	0.17177408453815568
7.750000	835.65918930380155	0.17143602742666969
7.775000	833.12398277794057	0.17108869484702283
7.800000	830.52351462271508	0.17072820297468791
7.825000	827.86697077657789	0.17035055820136644
7.850000	825.16297900324753	0.16995179162877402
7.875000	822.41958791419381	0.16952808759219332
7.900000	819.64424847661508	0.16907590422829488
7.925000	816.84379800691534	0.16859208443639026
7.950000	814.02444664966151	0.16807395584993498
7.975000	811.19176634205019	0.16751941873995888
8.000000	808.3506822638526	0.16692702097554396
8.025000	806.52307926482831	0.15163644366001353
8.050000	804.59618982651364	0.15094677321797162
8.075000	802.66177595687191	0.150208948711955
8.100000	800.72977983218061	0.14942501918280587
8.125000	798.80938159222649	0.14859744591538146
8.150000	796.90897383318088	0.14772909722788924
8.175000	795.03613912150536	0.14682323782856199
8.200000	793.19763052889778	0.14588351235328037
8.225000	791.39935518826314	0.14491392269378378
8.250000	789.64636087072381	0.14391879880462671
8.275000	787.94282558366604	0.14290276273386635
8.300000	786.29205018981315	0.14187068573453523
8.325000	784.69645404733546	0.14082763841142915
8.350000	783.15757367099582	0.13977883404543945
8.375000	781.67606441432804	0.13872956537729722
8.400000	780.25170517284755	0.13768513538260455
8.425000	779.83934241346526	0.11876826542613991
8.450000	779.3844622703142	0.11826841449341452
8.475000	778.98877792439305	0.11765659149049107
8.500000	778.65659338099454	0.11694143322672372
8.525000	778.39130413153975	0.11613246499740283
8.550000	778.19538755389306	0.11524008920703471
8.575000	778.07039638961987	0.11427556282523341
8.600000	778.01695529818653	0.11325096105435234
8.625000	778.03476048810717	0.11217912431166938
8.650000	778.12258242503265	0.11107358542288469
8.675000	778.2782716167892	0.10994847381983917
8.700000	778.49876747535052	0.10881839368998948
8.725000	778.78011025576711	0.10769827334257305
8.750000	779.11745607203352	0.10660318388302333
8.775000	779.50509498989527	0.10554812643025278
8.800000	779.93647219661148	0.10454778884274515
8.825000	781.29836613725502	0.15886478661213158
8.850000	782.68971220501317	0.15983313352012196
8.875000	784.12852787712245	0.16082960732246904
8.900000	785.61302065149607	0.16185381511312685
8.925000	787.14060813234664	0.16290552837598798
8.950000	788.7079227659226	0.16398464789859224
8.975000	790.3108192355005	0.16509116366417764
9.000000	791.94438451565838	0.16622511062702858
9.025000	793.60295058581551	0.16738652139118299
9.050000	795.28010980304475	0.1685753768198045
9.075000	796.96873293415433	0.16979155569975538
9.100000	798.66098984704354	0.17103478454669724
9.125000	800.34837286132586	0.1723045886927401
9.150000	802.02172275822545	0.17360024572844587
9.175000	803.6712574497443	0.17492074235371952
9.200000	805.28660330709999	0.17626473561066494
9.225000	807.72757257008152	0.12546174796855153
9.250000	810.25399097071431	0.12448616589103756
9.275000	812.75119209499394	0.12396160156991091
9.300000	815.21431551658065	0.12388979496874565
9.325000	817.63800562793688	0.12426382878372716
9.350000	820.01642120651672	0.12506844559082261
9.375000	822.34324701999253	0.12628081738079869
9.400000	824.61170747053461	0.12787167083601636
9.425000	826.81458227811731	0.12980663501068565
9.450000	828.94422420288174	0.13204766931893738
9.475000	830.99257880652726	0.13455444578704645
9.500000	832.95120625275683	0.13728559181548755
9.525000	834.81130514675078	0.14019973748372969
9.550000	836.56373841369407	0.14325634624690939
9.575000	838.19906121634119	0.14641633469179346
9.600000	839.70755091161777	0.14964250417823846
9.625000	842.20920910777534	0.17272475716630967
9.650000	844.56375805565017	0.16999501936277062
9.675000	846.79658901033667	0.1672639341652323
9.700000	848.90430544498338	0.16453970236391599
9.725000	850.88330542791232	0.16183026316834973
9.750000	852.72978450925325	0.15914323685827383
9.775000	854.43974018848871	0.15648586609532533
9.800000	856.00897796291179	0.15386495682735563
9.825000	857.43311895698662	0.1512868199311786
9.850000	858.70760913261836	0.14875721495443922
9.875000	859.82773008033871	0.14628129749118454
