#List of files for average calculation
#C:\D+_tests\Symmetry\GPU\WH\Space_Filling_Symmetry_Implicit_No_Charges_With_Hydration_MC\Space_Filling_Symmetry_Implicit_No_Charges_With_Hydration_MC_1
#C:\D+_tests\Symmetry\GPU\WH\Space_Filling_Symmetry_Implicit_No_Charges_With_Hydration_MC\Space_Filling_Symmetry_Implicit_No_Charges_With_Hydration_MC_2
#C:\D+_tests\Symmetry\GPU\WH\Space_Filling_Symmetry_Implicit_No_Charges_With_Hydration_MC\Space_Filling_Symmetry_Implicit_No_Charges_With_Hydration_MC_3
#C:\D+_tests\Symmetry\GPU\WH\Space_Filling_Symmetry_Implicit_No_Charges_With_Hydration_MC\Space_Filling_Symmetry_Implicit_No_Charges_With_Hydration_MC_4
#C:\D+_tests\Symmetry\GPU\WH\Space_Filling_Symmetry_Implicit_No_Charges_With_Hydration_MC\Space_Filling_Symmetry_Implicit_No_Charges_With_Hydration_MC_5
#C:\D+_tests\Symmetry\GPU\WH\Space_Filling_Symmetry_Implicit_No_Charges_With_Hydration_MC\Space_Filling_Symmetry_Implicit_No_Charges_With_Hydration_MC_6
#C:\D+_tests\Symmetry\GPU\WH\Space_Filling_Symmetry_Implicit_No_Charges_With_Hydration_MC\Space_Filling_Symmetry_Implicit_No_Charges_With_Hydration_MC_7
#C:\D+_tests\Symmetry\GPU\WH\Space_Filling_Symmetry_Implicit_No_Charges_With_Hydration_MC\Space_Filling_Symmetry_Implicit_No_Charges_With_Hydration_MC_8
#C:\D+_tests\Symmetry\GPU\WH\Space_Filling_Symmetry_Implicit_No_Charges_With_Hydration_MC\Space_Filling_Symmetry_Implicit_No_Charges_With_Hydration_MC_9
#C:\D+_tests\Symmetry\GPU\WH\Space_Filling_Symmetry_Implicit_No_Charges_With_Hydration_MC\Space_Filling_Symmetry_Implicit_No_Charges_With_Hydration_MC_10
#Average Chi square (Sigma units): 1.4122870066125
#Sigma Chi square: 0.4248760268107
#Calculation was done on GPU
q [nm^-1]	Intensity [A.U]	Sigma [A.U]
0.000000	62833252989.003906	0
0.006250	62857584292.959305	276147.22786547476
0.012500	62746285762.082596	388121.30079283169
0.018750	62502888605.250328	558884.89022441744
0.025000	62131377760.034584	1060959.028043421
0.031250	61636174240.728195	1918528.0242496573
0.037500	61022120571.565453	3103674.0205457802
0.043750	60294469305.138588	4607092.4516243199
0.050000	59458874626.010025	6426176.9658700703
0.056250	58521387039.519997	8559210.0073981155
0.062500	57488451145.790298	11003345.906368177
0.068750	56424316344.293846	13701443.683407184
0.075000	55369730482.975731	16891973.833737925
0.081250	54222703715.582085	20410832.182282589
0.087500	52993621005.709641	24176290.262518819
0.093750	51692778184.465866	28107984.40847655
0.100000	50330270522.067528	32128061.828818876
0.106250	48915893149.952477	36162070.699766487
0.112500	47459053333.404556	40139692.390170239
0.118750	45968694594.69162	43995356.311390445
0.125000	44453232686.716751	47668753.552628852
0.131250	42920503417.18261	51105255.731907122
0.137500	41418452274.298965	37672325.901321337
0.143750	39925510639.776527	39879786.403203703
0.150000	38415407697.63652	41968514.125264391
0.156250	36898178576.464584	43920298.987088606
0.162500	35383188507.13443	45719588.733388029
0.168750	33879087491.314137	47353565.908482634
0.175000	32393774079.743011	48812191.412427403
0.181250	30934368260.279053	50088212.379354723
0.187500	29507193455.716949	51177133.31642922
0.193750	28117767631.37672	52077150.329386868
0.200000	26770803512.462875	52789048.98282636
0.206250	25479568736.047096	30880566.393326644
0.212500	24230740434.222069	31283865.625539798
0.218750	23018693897.22007	31604654.920596447
0.225000	21847074776.791862	31843103.864606585
0.231250	20718846676.52103	32000268.956529733
0.237500	19636301284.595737	32078007.535541579
0.243750	18601075017.515247	32078881.835345458
0.250000	17614172174.731461	32006054.835788734
0.256250	16675994604.22517	31863180.063037895
0.262500	15786377879.017227	31654287.959334176
0.268750	14960069262.762493	55781635.204477377
0.275000	14160785362.170277	54628867.992304496
0.281250	13401673561.866804	53363795.128965326
0.287500	12681939789.894718	52000418.495166346
0.293750	12000568264.548388	50552786.286767907
0.300000	11356339265.757198	49034912.307285599
0.306250	10747848719.6602	47460691.546533972
0.312500	10173529596.372105	45843812.003935173
0.318750	9631675120.9405766	44197662.792535722
0.325000	9120463797.4949379	42535238.647946425
0.331250	8637986246.586174	40869041.067509621
0.337500	8174215265.1840725	21331064.285324167
0.343750	7743278659.1433916	20552334.123262998
0.350000	7334371552.0547085	19780207.479908105
0.356250	6945985187.6679335	19020047.390731338
0.362500	6576739226.3248158	18276632.176945709
0.368750	6225371523.2242517	17554117.812980998
0.375000	5890728754.8183918	16855996.0148765
0.381250	5571757893.339427	16185052.467938926
0.387500	5267498529.4571581	15543330.437625639
0.393750	4977076043.0672884	14932105.567235444
0.400000	4699695622.2104435	14351877.753650852
0.406250	4430711233.3307142	13346928.655623112
0.412500	4177933328.528441	12923727.256794956
0.418750	3934986640.1201668	12507184.13459482
0.425000	3701609148.8901215	12096761.202580949
0.431250	3477642481.216464	11691979.836013792
0.437500	3263004950.3942618	11292434.253561448
0.443750	3057667190.0366526	10897800.615235182
0.450000	2861630379.5542612	10507843.804068772
0.456250	2674907061.7128234	10122423.07823097
0.462500	2497504552.2690187	9741497.0734644514
0.468750	2332888850.4381871	3852529.2467367109
0.475000	2173743797.8502917	3626937.2332380335
0.481250	2022198141.3182266	3410167.6603979999
0.487500	1878360728.9889808	3202377.6676722616
0.493750	1742335199.5608044	3003744.0620167167
0.500000	1614201648.8177032	2814408.7352469536
0.506250	1494001291.994405	2634446.874268217
0.512500	1381724121.971823	2463856.0249550249
0.518750	1277299563.3030057	2302561.7786752004
0.525000	1180590122.0695813	2150434.0179275204
0.531250	1091388031.5686736	2007306.5701860907
0.537500	1007978923.9649996	2911173.2487059543
0.543750	931985892.05104423	2728402.2176860794
0.550000	862102893.70626926	2558377.9000810711
0.556250	798091560.84702039	2400236.1100527467
0.562500	739689223.54022801	2253037.8725965805
0.568750	686605717.730672	2115824.5768340626
0.575000	638521716.65086436	1987665.1887648739
0.581250	595088585.91356373	1867691.5463206433
0.587500	555929762.28691792	1755119.2286502924
0.593750	520643656.15222824	1649253.3539942105
0.600000	488808077.64434898	1549480.6737137288
0.606250	460855545.56123561	1918634.5366264151
0.612500	435187977.73085535	1776774.7946913079
0.618750	411945226.88073063	1649839.203442246
0.625000	390830677.06940484	1537413.1795822477
0.631250	371569783.05066097	1438845.8816686256
0.637500	353908006.12550861	1353242.4545736145
0.643750	337609202.79166812	1279478.3717431203
0.650000	322454466.19055408	1216238.9692302768
0.656250	308241420.35175335	1162081.809395886
0.662500	294783967.23500329	1115513.8288791003
0.668750	282306370.34097248	603058.98043207068
0.675000	271080120.26941985	563430.77316339745
0.681250	260101953.2663044	527478.4354324037
0.687500	249330699.34744406	495308.19779736217
0.693750	238750091.82905191	467268.11958560592
0.700000	228362896.70142937	443800.62560158531
0.706250	218185615.57087326	425275.76087163651
0.712500	208243762.16979611	411830.78380110441
0.718750	198567712.43505836	403255.44220330828
0.725000	189189128.15451413	398959.99393327569
0.731250	180137954.18177012	398036.14445532946
0.737500	172007886.3767924	555424.7027903609
0.743750	164478919.9744899	542184.75123962865
0.750000	157112858.65799001	531259.73783444485
0.756250	149988093.33791706	522182.99909393658
0.762500	143177044.23245323	514523.97018211894
0.768750	136742336.22245237	507919.54912970308
0.775000	130733705.76471698	502090.78095226333
0.781250	125185639.3634344	496844.41972480179
0.787500	120115743.5997761	492061.0314732368
0.793750	115523846.71965702	487672.6903800494
0.800000	111391831.77965662	483634.23379103583
0.806250	108103140.79192905	632562.75088120624
0.812500	105295532.52181093	616440.51315657119
0.818750	102779561.13497978	597119.17604612047
0.825000	100548453.41540198	574967.66630664899
0.831250	98586273.337395012	550374.63165582914
0.837500	96867603.431252077	523743.78536348749
0.843750	95357613.702440694	495489.05318439676
0.850000	94012518.104376644	466029.64819030603
0.856250	92780418.564772159	435785.28728050098
0.862500	91602536.565559134	405171.87310883478
0.868750	90942755.055258185	789525.80085542786
0.875000	90292095.618309706	748514.85719417653
0.881250	89526644.547442272	707465.43846155598
0.887500	88627283.875668049	666832.54204616812
0.893750	87578630.480585545	627066.78367026057
0.900000	86368520.331592202	588612.46828480053
0.906250	84987601.672878236	551904.17339095753
0.912500	83429037.142203018	517360.9576222116
0.918750	81688314.82545343	485377.14989233989
0.925000	79763168.246984214	456308.73345982487
0.931250	77653605.295740739	430454.85780368437
0.937500	75393512.329794258	288051.84255505813
0.943750	73389358.294617891	287008.0813772456
0.950000	71158381.288044378	285947.09534488322
0.956250	68743724.203469783	284866.05971217877
0.962500	66190350.489163972	283763.61570376426
0.968750	63543488.375678256	282635.80765224417
0.975000	60847255.947203994	281473.91696910979
0.981250	58143467.056880854	280264.09316249081
0.987500	55470618.086055353	278988.48535612458
0.993750	52863055.547489598	277627.44510849001
1.000000	50350324.532519825	276162.30666222185
1.006250	48430810.428986132	385326.65431225812
1.012500	46329484.143401191	387824.19792453549
1.018750	44314489.749165535	389945.27695978183
1.025000	42422605.775465548	391723.20953117614
1.031250	40684142.137635782	393182.38348611776
1.037500	39122175.772545867	394340.04424814979
1.043750	37752021.972356774	395207.29975282465
1.050000	36580941.416647136	395789.08371822914
1.056250	35608082.90290986	396083.05688545323
1.062500	34824661.775418147	396077.66061515006
1.068750	34195665.160379358	223994.55534899348
1.075000	33868891.578841299	224406.78915806339
1.081250	33674600.595647849	224503.64883718156
1.087500	33603802.212049119	224323.77328122588
1.093750	33643613.640665792	223887.17607975542
1.100000	33777389.766121417	223193.31786396919
1.106250	33984962.304816179	222220.78597685639
1.112500	34242987.663842224	220928.68880347747
1.118750	34525403.49904035	219259.75007603041
1.125000	34803993.972198263	217144.97239834131
1.131250	35049063.707390197	214509.6509373002
1.137500	35444142.932473376	268781.16961414524
1.143750	35771628.167448893	269524.92431290093
1.150000	36016035.884142444	269307.87393016252
1.156250	36165999.074836195	268069.66071385168
1.162500	36212116.974231139	265768.33164080064
1.168750	36146840.618648395	262381.52782701072
1.175000	35964383.868690349	257907.14724821135
1.181250	35660659.895361796	252363.65224867276
1.187500	35233243.129650846	245790.15973490427
1.193750	34681356.675569847	238246.41690560858
1.200000	34005885.186655991	229812.72923145824
1.206250	33466196.866168737	223659.14626294968
1.212500	32745559.032644831	215095.15824208007
1.218750	31902856.41899544	206484.84327232593
1.225000	30956408.430759199	197925.37042627658
1.231250	29925210.467596542	189496.55587586985
1.237500	28828351.599014562	181257.0261931413
1.243750	27684500.255249269	173242.26624269626
1.250000	26511457.933304437	165464.76490982765
1.256250	25325780.918147989	157916.26726144808
1.262500	24142470.019065164	150571.89889683234
1.268750	23004315.461046092	191759.5148276017
1.275000	21955040.975224219	183241.18602623508
1.281250	20912593.888398554	174870.4131081927
1.287500	19895483.81307929	166711.30189773388
1.293750	18919791.824023008	158812.0871518066
1.300000	17998817.298704483	151207.49277653178
1.306250	17142815.172664821	143922.05854396662
1.312500	16358823.609735232	136973.89627738172
1.318750	15650582.087137261	130378.22513724715
1.325000	15018539.895458782	124149.99807059843
1.331250	14459955.053506095	118304.99113455981
1.337500	13986587.355967809	70492.460362051032
1.343750	13613035.639517795	68739.662723275396
1.350000	13299512.175217917	67684.034260874949
1.356250	13044268.319251582	67474.837178305359
1.362500	12843758.59852667	68208.688607075659
1.368750	12692697.274783747	69902.355714341626
1.375000	12584157.210101638	72482.612035369952
1.381250	12509711.033800576	75796.073708411845
1.387500	12459614.610742768	79632.391610599778
1.393750	12423032.81103049	83750.404587924684
1.400000	12388307.581101622	87899.819115755818
1.406250	12424343.345284697	42445.540337717808
1.412500	12450377.34230845	45130.813391164636
1.418750	12466013.142127257	47861.805366928987
1.425000	12468000.622261196	50490.308271864938
1.431250	12453421.146109421	52913.806330418854
1.437500	12419641.732020311	55062.793412005063
1.443750	12364283.108472316	56890.746885548615
1.450000	12285201.655365655	58366.817019148388
1.456250	12180485.231424702	59470.699353569209
1.462500	12048462.887711171	60189.141026253856
1.468750	11888213.634652529	103151.76215473351
1.475000	11778781.804787381	101801.96202534827
1.481250	11636354.472733181	100002.30775932423
1.487500	11466813.001110401	97818.603765717635
1.493750	11276167.586707393	95316.318426802696
1.500000	11070336.351258459	92558.561753106696
1.506250	10854953.958319759	89604.632303158593
1.512500	10635209.756242944	86509.114711793343
1.518750	10415715.447246529	83321.488614368587
1.525000	10200402.282585073	80086.183084053468
1.531250	9992447.7838160582	76842.980732255994
1.537500	9847265.8161185887	41083.194131924407
1.543750	9704996.6118042171	39674.77004415416
1.550000	9568167.3997096661	38828.807857896194
1.556250	9442282.8789208569	38676.187644408819
1.562500	9331923.1025792491	39283.670473946629
1.568750	9240640.1778720412	40641.790551091479
1.575000	9170889.1905051433	42673.699841387446
1.581250	9123993.353658855	45259.457315528314
1.587500	9100143.3814263605	48262.879581724483
1.593750	9098431.0867349319	51551.370189225476
1.600000	9116917.2037499174	55006.455469070126
1.606250	9164791.5025934465	62349.56096409521
1.612500	9256438.137847608	62810.271491491876
1.618750	9360825.5598384701	63499.208985418896
1.625000	9477007.7849594988	64392.05760394808
1.631250	9603514.8320334088	65459.961913644838
1.637500	9738368.7431280892	66671.164088149351
1.643750	9879116.1869777981	67992.419736450858
1.650000	10022877.645009616	69390.132118143651
1.656250	10166413.179975282	70831.209243309975
1.662500	10306204.787188208	72283.691097735456
1.668750	10467920.526925145	77859.972387271846
1.675000	10637840.258197242	81005.983729683154
1.681250	10797048.292682897	84030.549020997714
1.687500	10944735.604099991	86919.78889772197
1.693750	11080240.819698732	89659.77180202333
1.700000	11203009.87651814	92236.690010875434
1.706250	11312564.845439553	94637.027846726007
1.712500	11408481.923037257	96847.722519422736
1.718750	11490378.591226269	98856.317566554833
1.725000	11557909.944707161	100651.10825966988
1.731250	11610774.186208058	102221.27780914732
1.737500	11736242.140783997	39876.399010396126
1.743750	11807169.816581436	40877.090535693635
1.750000	11862907.585179824	41902.518951034835
1.756250	11905358.114659792	42940.657484874195
1.762500	11936371.892884737	43977.336622928698
1.768750	11957669.15592563	44996.846757251238
1.775000	11970776.857624575	45982.601349030221
1.781250	11976980.680297129	46917.795856590565
1.787500	11977292.08657331	47786.015611115865
1.793750	11972430.412377382	48571.765106816543
1.800000	11962820.001046356	49260.908823176622
1.806250	11965787.306296447	90437.148007032913
1.812500	11986376.431893505	88820.677978823427
1.818750	12003802.797887646	86999.798577160953
1.825000	12019731.79186696	84999.782760079222
1.831250	12035460.334172832	82848.97876447592
1.837500	12051885.313191835	80578.749050381855
1.843750	12069486.944473637	78223.344383133794
1.850000	12088327.053674873	75819.68753274178
1.856250	12108062.283328991	73407.032067552296
1.862500	12127972.223442078	71026.45288152463
1.868750	12146452.111434011	42028.173490263362
1.875000	12201127.436024271	41372.320829428216
1.881250	12255666.295667255	40946.93370971868
1.887500	12310445.684020851	40768.024187536503
1.893750	12365586.645919476	40842.073622063697
1.900000	12420940.70416699	41165.603347050936
1.906250	12476085.490598805	41725.662091368104
1.912500	12530329.58141307	42501.125137646457
1.918750	12582726.536771011	43464.527727786335
1.925000	12632098.144666411	44584.088584950478
1.931250	12677066.869064216	45825.623692531502
1.937500	12769352.132973019	71076.56828637459
1.943750	12844615.256942252	72530.220726878091
1.950000	12916261.116950523	74025.208062535821
1.956250	12984819.475180198	75572.40507005727
1.962500	13050625.946902249	77180.865422385657
1.968750	13113793.301247476	78857.144929685848
1.975000	13174191.448520701	80604.723088326107
1.981250	13231436.114058072	82423.553533970189
1.987500	13284886.198627386	84309.765330335766
1.993750	13333649.825371504	86255.526147873403
2.000000	13376599.073294792	88249.06698116308
2.006250	13463022.051159969	95267.185784657035
2.012500	13537595.299592998	94958.320429410567
2.018750	13608111.396408532	94720.605135342499
2.025000	13674975.407055354	94574.893703899463
2.031250	13738288.566462452	94537.481994060377
2.037500	13797824.867441881	94618.823465543057
2.043750	13853018.222311441	94822.480700514483
2.050000	13902960.197737206	95144.411760336676
2.056250	13946408.322795928	95572.663027415954
2.062500	13981804.970257243	96087.500958291057
2.068750	13996205.305378029	109395.83293368859
2.075000	14056867.649880284	110181.65551696805
2.081250	14108774.080626741	110869.53022137584
2.087500	14152159.655097734	111463.86261121898
2.093750	14187001.822236631	111967.68163395068
2.100000	14213007.527585452	112382.4020392317
2.106250	14229609.037144354	112707.64641779622
2.112500	14235968.479955003	112941.13018687147
2.118750	14230991.109407842	113078.61193881471
2.125000	14213347.283273185	113113.91034158229
2.131250	14181503.162456278	113038.98733528239
2.137500	14175650.312834177	130606.89334539702
2.143750	14165253.243121028	131472.93865378937
2.150000	14139911.401681188	132103.60012442677
2.156250	14100147.312753508	132505.04832055009
2.162500	14046346.879071509	132683.18945789503
2.168750	13978743.926530292	132643.35984393657
2.175000	13897411.202424595	132390.05077187793
2.181250	13802257.82725786	131926.67429595417
2.187500	13693033.200122541	131255.38084462262
2.193750	13569337.357651388	130376.93962295384
2.200000	13430637.786539907	129290.69220308335
2.206250	13320682.49321829	95991.287973290178
2.212500	13198251.223599408	95275.930704253333
2.218750	13061370.322740311	94508.43760424036
2.225000	12911592.983014967	93684.35483641467
2.231250	12750298.082661871	92797.230331165425
2.237500	12578662.722267676	91839.150911473203
2.243750	12397642.147556813	90801.302625453725
2.250000	12207957.058487335	89674.525792695815
2.256250	12010088.304652765	88449.839915476899
2.262500	11804278.966990082	87118.918402859199
2.268750	11583467.265033191	97751.431142934787
2.275000	11401033.633882176	94633.621457810281
2.281250	11209304.423949327	91403.430074465476
2.287500	11010012.375997748	88089.333939806806
2.293750	10804659.226551993	84718.229871230549
2.300000	10594490.6989523	81315.164528922294
2.306250	10380479.50235774	77903.10922637819
2.312500	10163316.338698627	74502.779897728251
2.318750	9943408.9175777491	71132.503317087307
2.325000	9720888.9791208096	67808.131648374474
2.331250	9495627.3247758318	64543.008534735243
2.337500	9348699.6370339096	37246.260417849029
2.343750	9145048.8518946506	35310.326421997393
2.350000	8936765.1458113268	33499.391133282792
2.356250	8725031.5512825064	31823.583092554734
2.362500	8510842.7043375205	30288.989032967991
2.368750	8294993.6266129911	28897.438993537016
2.375000	8078074.7127323328	27646.521076819146
2.381250	7860472.9229878979	26529.870804302311
2.387500	7642379.1813259926	25537.744171964951
2.393750	7423801.9786347318	24657.83675213372
2.400000	7204587.1813345905	23876.266367268356
2.406250	6981774.6322167264	34772.005555775642
2.412500	6785182.1589372056	33711.837065125699
2.418750	6586309.0989696383	32580.621076136398
2.425000	6386254.6672254419	31392.125884448091
2.431250	6186011.3320972528	30160.232572699544
2.437500	5986449.9666677583	28898.717127003707
