#List of files for average calculation
#Z:\run\2\10nmRod_Scripted_Direct_MC\10nmRod_Scripted_Direct_MC_1
#Z:\run\2\10nmRod_Scripted_Direct_MC\10nmRod_Scripted_Direct_MC_2
#Z:\run\2\10nmRod_Scripted_Direct_MC\10nmRod_Scripted_Direct_MC_3
#Z:\run\2\10nmRod_Scripted_Direct_MC\10nmRod_Scripted_Direct_MC_4
#Z:\run\2\10nmRod_Scripted_Direct_MC\10nmRod_Scripted_Direct_MC_5
#Z:\run\2\10nmRod_Scripted_Direct_MC\10nmRod_Scripted_Direct_MC_6
#Z:\run\2\10nmRod_Scripted_Direct_MC\10nmRod_Scripted_Direct_MC_7
#Z:\run\2\10nmRod_Scripted_Direct_MC\10nmRod_Scripted_Direct_MC_8
#Z:\run\2\10nmRod_Scripted_Direct_MC\10nmRod_Scripted_Direct_MC_9
#Z:\run\2\10nmRod_Scripted_Direct_MC\10nmRod_Scripted_Direct_MC_10
#Average Chi square (Sigma units): 2.1452758468957
#Sigma Chi square: 0.33183412709093
#Calculation was done on GPU
q [nm^-1]	Intensity [A.U]	Sigma [A.U]
0.000000	4430465.4156490145	9.8170019070567548e-010
0.006250	4429973.0979780117	101.66117023994251
0.012500	4428331.9353536097	369.91596490378129
0.018750	4426005.0691005336	1091.3041358319244
0.025000	4422091.8690025285	1973.8402468090319
0.031250	4416850.9674476963	2411.3825972490204
0.037500	4413486.5363792358	3145.5958032939025
0.043750	4404998.4689365607	4080.2555708662453
0.050000	4396157.2803197177	5378.7295507930521
0.056250	4390673.9666417092	4971.9445825132843
0.062500	4380728.4863071013	9182.4358346657009
0.068750	4367031.0784358829	7591.3313609079614
0.075000	4357101.9511383716	8055.9294594451658
0.081250	4343670.3693547053	10783.97439323578
0.087500	4333508.1037464803	9210.0896994836858
0.093750	4317936.5783300819	17755.90936851392
0.100000	4303488.7959133713	17963.573765451441
0.106250	4294422.5760164103	15299.893175286741
0.112500	4264236.7691931035	10900.424458680905
0.118750	4248513.8060905356	11855.665183352501
0.125000	4237044.4252867224	17428.527470104622
0.131250	4217576.1934684087	26877.534797631553
0.137500	4194495.4481145097	25442.194923912197
0.143750	4174598.2874203315	21768.437904882441
0.150000	4162296.261312542	36878.328676953286
0.156250	4129407.4089283221	18350.397069390445
0.162500	4104827.5050040521	26241.765185841028
0.168750	4081527.8103113123	21953.382008111188
0.175000	4062565.0190569563	32697.451691691142
0.181250	4032764.5417704694	26785.331363440873
0.187500	4021607.6031467943	36556.450692016129
0.193750	3968410.9508329639	29652.44288867338
0.200000	3932750.3892979594	24561.679542471495
0.206250	3922015.9736599005	23922.773198213919
0.212500	3908709.5908701867	37014.870384313814
0.218750	3862768.240192221	35798.482533520786
0.225000	3844380.643071746	18206.235906666428
0.231250	3806926.7290955195	29382.694073211373
0.237500	3778797.8866504072	19219.293424776242
0.243750	3721725.5324865268	18631.323164003301
0.250000	3705795.7162820152	25091.232021786996
0.256250	3669649.3066083128	28192.874716295435
0.262500	3643093.6265019886	19003.427288574992
0.268750	3600230.2584347082	41327.560738290558
0.275000	3575614.3879060699	29253.634574570471
0.281250	3546756.5408792756	19426.31241977245
0.287500	3509209.5404114746	20937.632366700862
0.293750	3459879.2035350194	39060.384346181963
0.300000	3432062.0527784391	26885.503471529726
0.306250	3391184.3170469129	39460.80063955173
0.312500	3383640.3112466568	37234.726644778231
0.318750	3337812.4904537005	26572.699575390106
0.325000	3329633.7361238948	43761.590340351584
0.331250	3275919.5521918209	29620.481791408954
0.337500	3248045.6248293919	57724.230702364548
0.343750	3237973.2689178498	60918.423012770108
0.350000	3166589.6962343426	11898.401164504043
0.356250	3141543.2291494031	21948.987902797173
0.362500	3093681.2568100682	14810.697782005269
0.368750	3065968.158636204	24913.488493692927
0.375000	3014592.3751787455	28228.284043803349
0.381250	2975325.7744945087	48047.917985412627
0.387500	2965930.8685765741	18277.818145871744
0.393750	2914187.9393610246	29185.913597277959
0.400000	2881540.3150785984	11836.869073966365
0.406250	2855395.4962958889	18260.777971708776
0.412500	2813580.1740708337	21974.093579972814
0.418750	2810742.3887483361	22518.42597995693
0.425000	2766538.2615029099	32470.095690480983
0.431250	2717247.2010325855	19749.916728501921
0.437500	2689585.5306579797	21726.39643341694
0.443750	2662821.6760449177	22350.920216771858
0.450000	2601860.7817646251	25363.78335018918
0.456250	2604838.4940323606	30463.73454411684
0.462500	2551968.3227405818	17447.669862388957
0.468750	2537599.1807393716	24248.179654301166
0.475000	2504691.9477465237	40432.986831665352
0.481250	2468648.2257824745	24925.409870981421
0.487500	2441622.1118399054	22715.604699241019
0.493750	2403461.4279550351	20585.603153855376
0.500000	2361656.2558009857	25458.066545630256
0.506250	2326614.4957833751	28490.417987357487
0.512500	2314122.3908071937	8727.5095234543769
0.518750	2282164.8904261217	19132.500738875337
0.525000	2250100.8988113604	28460.69031625376
0.531250	2218792.4373059822	55324.230246380852
0.537500	2196561.10808504	20028.691907913832
0.543750	2169712.6157233408	9353.8364408908146
0.550000	2135389.6744435998	9922.5814216788931
0.556250	2107688.1701809568	20598.12278603491
0.562500	2094920.1270186969	21336.582446299137
0.568750	2051240.9263847184	21573.544547751648
0.575000	2038778.9638073309	25742.596088507282
0.581250	2001653.9433978952	27198.151199577413
0.587500	1985236.1248996896	32749.607427463787
0.593750	1956583.189407435	25546.6952141566
0.600000	1920007.6061622859	25819.690546737678
0.606250	1901739.3524266393	11714.986790798775
0.612500	1890420.8864881459	18043.395647091744
0.618750	1870168.1749813217	25599.157716548023
0.625000	1846878.6151191115	12894.227760380698
0.631250	1829533.4552635713	31772.887200525081
0.637500	1797836.7396275699	11558.971501554117
0.643750	1775888.4850848764	19377.997171911233
0.650000	1760248.3627146301	7427.7614233044733
0.656250	1735408.7131545325	38281.174602928004
0.662500	1707842.1677455616	21005.984318562347
0.668750	1697940.9434831056	14826.266612199299
0.675000	1672610.0367777569	18734.056535075972
0.681250	1654619.2498908532	18761.407069263991
0.687500	1650584.4737570928	35362.629428496373
0.693750	1621179.701395757	35586.128390573802
0.700000	1611563.7961032884	43473.831952948261
0.706250	1587157.4788854376	19544.429727692088
0.712500	1566029.7431249332	16181.199104330308
0.718750	1557662.7667638711	10408.657755686332
0.725000	1536834.7359491852	14194.897204254486
0.731250	1531191.2298159804	13820.140062915636
0.737500	1493191.5457758266	47955.059968774556
0.743750	1492619.7419646385	24392.133416681805
0.750000	1483590.0390155523	20815.481522320977
0.756250	1457645.9263725402	25010.942812068894
0.762500	1439084.4529540038	26356.334342031645
0.768750	1440935.5378611938	14297.848333070651
0.775000	1413426.74740338	18456.974321417871
0.781250	1405537.5261385532	8728.6502644178909
0.787500	1386307.6085378106	15237.812709316091
0.793750	1370151.9438170255	16084.923414272858
0.800000	1365019.8373744595	35197.047478037966
0.806250	1352920.791183626	10537.674566114643
0.812500	1346901.509462236	24101.256322660083
0.818750	1336875.2412266012	23637.70003919828
0.825000	1314784.3554290445	8209.9626822821228
0.831250	1309389.5504260915	14221.611068555922
0.837500	1291744.461588332	23816.464052200052
0.843750	1282089.7981172514	9131.4678616732617
0.850000	1282264.5434966118	21546.577900182681
0.856250	1260434.1613568724	23098.135795206465
0.862500	1238556.6131285082	9886.9054694958231
0.868750	1240653.5070594312	28220.580061950302
0.875000	1223707.0057697971	13877.835638548735
0.881250	1210636.9988775391	22670.252216742414
0.887500	1201470.6690465335	17429.779781216286
0.893750	1185302.0261137777	17146.848515085665
0.900000	1173672.1847106295	20691.278906586569
0.906250	1171817.4474979725	5836.2907753732225
0.912500	1159458.2028600855	7129.5400142524122
0.918750	1163385.7290655952	33063.469948943522
0.925000	1154405.8200968695	32525.285904559503
0.931250	1132433.9280743704	8241.0619485888656
0.937500	1121951.7875665503	11511.627043349383
0.943750	1118398.0886686707	21873.997617442692
0.950000	1102808.5690421017	9883.1184138851459
0.956250	1098763.9470600127	23687.548447746998
0.962500	1083065.553552618	9155.206317827613
0.968750	1082159.9692123388	9931.9008773011792
0.975000	1072342.2085843654	9863.3661019554875
0.981250	1059791.1730486793	15501.396072061365
0.987500	1046291.7667292407	7068.3568761530896
0.993750	1035097.8606828672	11060.666968123347
1.000000	1029381.7012990596	9803.2699032243745
1.006250	1024765.7674785597	11615.10941644909
1.012500	1014343.76860232	5603.9785208262401
1.018750	1002093.2346151378	7095.4116109931465
1.025000	999344.25900254655	10605.499020752304
1.031250	991906.42586198053	16014.38707358423
1.037500	981689.63924612442	9758.9177144195837
1.043750	972223.82727781986	15354.762453114396
1.050000	965477.08707525174	9820.710296043495
1.056250	951400.88638786343	9224.8488757970681
1.062500	949467.36893395404	14948.172202781312
1.068750	936268.42390793934	10862.854059608058
1.075000	926965.6288690574	11067.576250638851
1.081250	915807.27070823614	13445.197191921476
1.087500	911412.04727864754	7143.5956899714547
1.093750	903485.62459709193	14779.332662194089
1.100000	899410.03119144938	17841.588663487371
1.106250	887549.41729221062	17760.695454666875
1.112500	886073.21838953928	7158.3807857253341
1.118750	867804.12714732962	12227.415045655853
1.125000	868996.68139100226	22356.050756383229
1.131250	858412.78315398097	11124.862073371076
1.137500	858610.89371128031	9727.5826276913413
1.143750	847324.02719636471	6782.1441944051348
1.150000	833633.41269409726	5958.0777218028743
1.156250	821030.07745417173	12839.421017017776
1.162500	826036.95050647401	10060.534471931993
1.168750	811112.45033423323	11769.915363901078
1.175000	804330.51364633103	7936.503009490918
1.181250	791754.04776916711	16460.962823776437
1.187500	795252.28145096079	10574.019877883979
1.193750	785604.66818953841	8575.7531643448019
1.200000	771368.38646835322	15084.649646225276
1.206250	772330.65460116393	10195.48562432369
1.212500	766774.10156575474	4979.9781319506501
1.218750	750961.87996918801	7499.9020121960148
1.225000	746780.21517865756	12891.022371530145
1.231250	743227.62605383876	6078.6304929620937
1.237500	733966.24288543593	14144.369497501275
1.243750	724083.22974848805	11746.321147106553
1.250000	724143.70869629248	15058.558389028003
1.256250	711525.46756550041	9126.0826721995782
1.262500	708074.30295334745	6068.6782324180322
1.268750	700647.60157440719	8241.5202083140884
1.275000	698466.99707763328	5596.9731976861667
1.281250	691985.6895041673	4790.3974143782352
1.287500	677547.55365301017	20531.436013118098
1.293750	686513.85358878691	15022.48231640302
1.300000	672979.21580920881	7151.2605392177566
1.306250	676572.72146381473	19111.180444996196
1.312500	663023.78921259637	10820.10763590822
1.318750	652570.11606436677	7409.5468407854842
1.325000	649273.07716659934	9411.5881646464586
1.331250	641156.4619236734	6376.6378938118096
1.337500	636192.30041510006	11457.130634775403
1.343750	630478.20116412139	6182.4930838233049
1.350000	623315.92237622256	12095.626829010389
1.356250	615314.339009327	10467.112317879746
1.362500	617409.84478964331	6786.6155467932913
1.368750	621045.0869196587	48424.650574228937
1.375000	603528.00019207806	8230.5173348604712
1.381250	594812.25351354049	4644.7541496584681
1.387500	589711.53807201958	4708.6478505761916
1.393750	583684.69199753262	4547.3771275323779
1.400000	585575.50728903129	9022.4940913651444
1.406250	573442.52831122919	10289.718905658274
1.412500	574807.05794807	6767.5739430098774
1.418750	564097.44094049861	5772.0340784528235
1.425000	557933.64013375645	7426.5946970344266
1.431250	556472.6520962097	6970.0794856774264
1.437500	553978.68412834103	8510.7409449474071
1.443750	547882.31154720637	9809.7361715341376
1.450000	538662.54350776703	13787.927342833893
1.456250	537488.82665292069	8837.5299965623453
1.462500	520344.53628950036	16520.823273617458
1.468750	526022.04497886938	6338.036303425878
1.475000	523199.73182798678	7063.2784905686622
1.481250	517890.82033319247	8801.6536430111646
1.487500	513797.74304712639	5511.7257080853669
1.493750	508692.09822475538	7314.758546074464
1.500000	504705.035844545	7196.3510639718261
1.506250	501437.68285749125	15086.656499632332
1.512500	498027.03092975391	8963.8308476385973
1.518750	492356.05623171397	4159.3469833477766
1.525000	488964.65896451147	3832.8527397548401
1.531250	481602.76464163733	2675.5190794934597
1.537500	477817.09377368371	2520.3318278617107
1.543750	474932.2815387423	3509.4049935909538
1.550000	468365.969075753	8155.1345948026765
1.556250	469255.62250988715	5940.8381325943519
1.562500	459192.30436642014	10839.629493259858
1.568750	464100.92971309245	10624.140953433489
1.575000	454285.34724499407	11629.145612403992
1.581250	449656.5917474312	4270.327929135301
1.587500	444540.52307615883	13152.950603404403
1.593750	439155.94395485241	7374.2839587324324
1.600000	438998.14323668368	6747.7960776630798
1.606250	436187.14606744656	5821.2886654300964
1.612500	428037.34164550033	8222.5834920915149
1.618750	430600.60825787979	3671.6877881376049
1.625000	425195.55436898518	5959.0711904407035
1.631250	417923.71364752308	7363.5942640770636
1.637500	414636.74253972888	5315.1190733980156
1.643750	414092.00672537647	6873.8820653447792
1.650000	404888.37412421335	9641.1229977123076
1.656250	404128.9797541991	3861.1684190910059
1.662500	400638.15815873974	5390.585288764355
1.668750	398083.95305986184	4095.2360854327367
1.675000	395689.47836435068	5783.3686799876723
1.681250	386431.43430991482	5593.6568507709326
1.687500	383973.17968680972	4659.6941060159716
1.693750	383054.22030186479	4652.5634719769432
1.700000	378777.49817502219	6282.3347825844476
1.706250	375931.13589922141	5777.7202641590675
1.712500	371318.7455308676	3740.9441180489903
1.718750	368403.12474697456	3626.1056080658891
1.725000	362311.36746634904	7293.8171237901661
1.731250	361809.66123111336	6945.4758429253297
1.737500	358228.30810233764	5107.2581241645239
1.743750	355370.15439879877	6093.4739503877481
1.750000	350490.77528641291	3393.0255896735398
1.756250	347644.1037814804	3117.5146963657903
1.762500	344085.46857645107	3393.1601362741235
1.768750	341281.74292703305	8811.5074166787508
1.775000	336081.26903486333	6915.5691678523126
1.781250	333309.73462127283	3404.037391935316
1.787500	332312.14910197043	5848.3492684802386
1.793750	327279.85604287422	3360.7637938522762
1.800000	325881.18310925213	3383.7146636475145
1.806250	324158.17968218657	6115.0905095948483
1.812500	322075.81627940031	5237.2662461573063
1.818750	317431.69806236913	3550.8843338420088
1.825000	314964.17741329875	5978.213653665036
1.831250	307214.52332388802	3952.2642364508915
1.837500	305962.69969008834	4936.9982056211556
1.843750	302241.33005373698	4554.6859566759558
1.850000	298973.03971060313	4945.5948387743174
1.856250	296543.99918029393	3493.3111132809277
1.862500	294484.4874479993	3714.39510766287
1.868750	290746.06982900994	2599.2475748230559
1.875000	286005.47384882456	2917.1619961260772
1.881250	285209.53602157655	3002.28183785382
1.887500	283324.79014945874	4357.4092119214101
1.893750	277510.55542208813	4784.6247449272651
1.900000	276102.8293711982	3065.5272435396309
1.906250	271409.55028676364	4093.7893455782973
1.912500	268326.17749878939	8236.1560721201367
1.918750	266722.222529363	5855.7767304779381
1.925000	266713.39521087229	3451.2410478707729
1.931250	261319.89421314676	3583.9544897168703
1.937500	260894.62207782868	6636.4104675021981
1.943750	257154.42427342437	1983.9392620649824
1.950000	254950.58665718077	4659.9285836207946
1.956250	250557.6432341082	3153.9614415469268
1.962500	249111.88650277155	1633.1993307622915
1.968750	245420.31162731652	1847.372858792131
1.975000	244634.28491775464	3960.235396666907
1.981250	241082.66229223568	4335.7871962146155
1.987500	237549.95216974872	2460.0221953672726
1.993750	236093.30908728665	1917.1492100452429
2.000000	234385.23169710828	3314.8738994111318
2.006250	231490.82438213547	7484.3653079415217
2.012500	227464.79077947015	2704.4096725383938
2.018750	226292.38978854514	3656.1221181188225
2.025000	225668.73566916943	1723.9114333763625
2.031250	222942.58859822713	3351.2432574166878
2.037500	220302.33926625628	2525.2665948172757
2.043750	216390.98310717131	2548.9906696538051
2.050000	215007.21550794103	2605.6870200386434
2.056250	213390.01183357806	1369.8192505438712
2.062500	209293.96610148685	4578.29813578226
2.068750	207329.55842752691	2810.2553256265669
2.075000	205924.16202751576	2947.2813866906517
2.081250	205514.00366621019	2916.2817641765241
2.087500	200980.17434135047	2469.993487794301
2.093750	197665.6646822498	8985.8352577517599
2.100000	194919.56744645044	4411.47940033753
2.106250	195557.19745756508	3373.8444373934008
2.112500	193999.23878622084	5042.2846041991052
2.118750	189465.44096332608	2423.8121999436025
2.125000	187584.10394414613	4887.444689581911
2.131250	187579.84653697378	2216.2409352303894
2.137500	184673.34601164126	3202.7520667579211
2.143750	181749.8679493868	3454.8130085195189
2.150000	182489.87321798381	2888.4342972829331
2.156250	178796.12882412804	2783.2527809552375
2.162500	176456.17935068024	2278.5297664777663
2.168750	178420.65802899213	9530.1325540897487
2.175000	173826.24414701888	1696.2158336919904
2.181250	171731.47101558329	4245.700457565501
2.187500	172635.79931552173	5456.9056180437992
2.193750	170379.85103875608	5031.0614678826951
2.200000	165396.91241786588	2852.9411352769512
2.206250	163478.64484081062	3490.495050605773
2.212500	162760.91811620412	1667.7534803730225
2.218750	161470.47875574254	4132.7157442688967
2.225000	160316.66926318774	1726.1940897691029
2.231250	156132.92063514102	1973.330949879512
2.237500	154874.75911750802	3500.24754364718
2.243750	155469.80048586606	3929.1179073403773
2.250000	151713.59811094936	1377.3264427296749
2.256250	150228.49224750698	3195.104345235457
2.262500	148104.01507661643	3016.2895313847089
2.268750	147026.23671400241	1468.4398846148713
2.275000	146083.88155249573	1803.6319022957662
2.281250	144062.11303398776	860.5281244353281
2.287500	141654.6234157171	1779.8977793149754
2.293750	142141.03696389351	3668.4979769180954
2.300000	139258.78695608853	1061.9296685470626
2.306250	137369.52513319062	4171.6025679178074
2.312500	135517.89733758455	1724.2895235812525
2.318750	133978.2910339426	1343.6014790930519
2.325000	132473.28392425837	1622.3352069738928
2.331250	130534.35169593742	2838.277284294546
2.337500	129683.26002694131	1291.1527540747288
2.343750	127438.81964590315	1420.5034380855764
2.350000	126945.03180741398	3404.1385935750891
2.356250	123823.76522199088	1085.5727014538984
2.362500	122551.48043094468	1178.832761298579
2.368750	122576.62753191878	2002.3967724270126
2.375000	119656.42760992632	2130.948284333735
2.381250	118102.04157478937	1150.6293473147443
2.387500	117246.41220901685	867.36360533912728
2.393750	115121.89222573531	2013.219348393201
2.400000	113972.71230095865	1087.1514501797265
2.406250	113506.76738284979	1927.4098554016769
2.412500	111177.74640756655	1506.1989938189981
2.418750	109449.58775624124	1179.0091882383929
2.425000	108633.43988566315	1688.4043989441441
2.431250	107927.79608212886	1783.8328349429562
2.437500	106260.58369816837	1128.5763393735467
2.443750	105179.47058266464	1697.081002958322
2.450000	103318.81506783556	1095.9567266956117
2.456250	102583.61774084835	1497.2919626037801
2.462500	100115.04151552024	984.75868826099043
2.468750	98681.397390348531	767.08166798110744
2.475000	98058.074853584374	632.47560429186808
2.481250	98697.138698482886	6890.3047018748102
2.487500	95068.143304963989	2018.504866470777
2.493750	94105.385463848157	1378.7661162760705
2.500000	92906.275687750283	913.09661644072457
2.506250	92117.621588512207	1713.2009366106267
2.512500	90697.783067213051	2493.4709259361916
2.518750	88624.682273557264	1988.9642680009492
2.525000	87710.315900044661	1369.509017567533
2.531250	87064.577856257252	1263.9511256561539
2.537500	85661.864568715886	1317.1918787278514
2.543750	85159.688222351135	2974.7805903496587
2.550000	83040.044063390582	934.51215809208998
