#List of files for average calculation
#C:\D+_tests\Symmetry\GPU\Without_Hydration\Single_PDB_Implicit_No_Charges_Without_Hydration_Gauss_Kronrod_Amp\Single_PDB_Implicit_No_Charges_Without_Hydration_Gauss_Kronrod_Amp_1
#C:\D+_tests\Symmetry\GPU\Without_Hydration\Single_PDB_Implicit_No_Charges_Without_Hydration_Gauss_Kronrod_Amp\Single_PDB_Implicit_No_Charges_Without_Hydration_Gauss_Kronrod_Amp_2
#C:\D+_tests\Symmetry\GPU\Without_Hydration\Single_PDB_Implicit_No_Charges_Without_Hydration_Gauss_Kronrod_Amp\Single_PDB_Implicit_No_Charges_Without_Hydration_Gauss_Kronrod_Amp_3
#C:\D+_tests\Symmetry\GPU\Without_Hydration\Single_PDB_Implicit_No_Charges_Without_Hydration_Gauss_Kronrod_Amp\Single_PDB_Implicit_No_Charges_Without_Hydration_Gauss_Kronrod_Amp_4
#C:\D+_tests\Symmetry\GPU\Without_Hydration\Single_PDB_Implicit_No_Charges_Without_Hydration_Gauss_Kronrod_Amp\Single_PDB_Implicit_No_Charges_Without_Hydration_Gauss_Kronrod_Amp_5
#C:\D+_tests\Symmetry\GPU\Without_Hydration\Single_PDB_Implicit_No_Charges_Without_Hydration_Gauss_Kronrod_Amp\Single_PDB_Implicit_No_Charges_Without_Hydration_Gauss_Kronrod_Amp_6
#C:\D+_tests\Symmetry\GPU\Without_Hydration\Single_PDB_Implicit_No_Charges_Without_Hydration_Gauss_Kronrod_Amp\Single_PDB_Implicit_No_Charges_Without_Hydration_Gauss_Kronrod_Amp_7
#C:\D+_tests\Symmetry\GPU\Without_Hydration\Single_PDB_Implicit_No_Charges_Without_Hydration_Gauss_Kronrod_Amp\Single_PDB_Implicit_No_Charges_Without_Hydration_Gauss_Kronrod_Amp_8
#C:\D+_tests\Symmetry\GPU\Without_Hydration\Single_PDB_Implicit_No_Charges_Without_Hydration_Gauss_Kronrod_Amp\Single_PDB_Implicit_No_Charges_Without_Hydration_Gauss_Kronrod_Amp_9
#C:\D+_tests\Symmetry\GPU\Without_Hydration\Single_PDB_Implicit_No_Charges_Without_Hydration_Gauss_Kronrod_Amp\Single_PDB_Implicit_No_Charges_Without_Hydration_Gauss_Kronrod_Amp_10
#Average Chi square (Sigma units): 0.56629213483146
#Sigma Chi square: 1.1702778228589e-016
#Calculation was done on GPU
q [nm^-1]	Intensity [A.U]	Sigma [A.U]
0.000000	43448519675.188942	8.0420879622608936e-006
0.006250	43466012840.562187	0
0.012500	43391022305.458611	8.0420879622608936e-006
0.018750	43225852940.21064	8.0420879622608936e-006
0.025000	42973119543.085648	8.0420879622608936e-006
0.031250	42635735215.443657	8.0420879622608936e-006
0.037500	42216901629.071541	8.0420879622608936e-006
0.043750	41720101185.693703	8.0420879622608936e-006
0.050000	41149091068.658562	0
0.056250	40507899186.801834	8.0420879622608936e-006
0.062500	39800822010.485771	8.0420879622608936e-006
0.068750	39069247868.028488	8.0420879622608936e-006
0.075000	38345483517.159279	8.0420879622608936e-006
0.081250	37557841705.936279	0
0.087500	36713452617.76606	8.0420879622608936e-006
0.093750	35819390617.769142	8.0420879622608936e-006
0.100000	34882599654.527351	0
0.106250	33909826368.172905	4.0210439811304468e-006
0.112500	32907560904.818672	8.0420879622608936e-006
0.118750	31881985437.330376	4.0210439811304468e-006
0.125000	30838930392.439934	8.0420879622608936e-006
0.131250	29783838384.2006	4.0210439811304468e-006
0.137500	28756198873.714409	8.0420879622608936e-006
0.143750	27729679247.473793	0
0.150000	26691217574.860252	4.0210439811304468e-006
0.156250	25647645833.331718	4.0210439811304468e-006
0.162500	24605342625.214329	0
0.168750	23570202101.18066	0
0.175000	22547609044.014408	4.0210439811304468e-006
0.181250	21542420112.661465	4.0210439811304468e-006
0.187500	20558951246.567074	4.0210439811304468e-006
0.193750	19600971230.299587	0
0.200000	18671701418.460484	0
0.206250	17786679426.522526	0
0.212500	16924236523.472097	0
0.218750	16086755288.57547	0
0.225000	15276789010.93926	0
0.231250	14496419981.354046	0
0.237500	13747266004.345764	0
0.243750	13030491413.234436	0
0.250000	12346822588.200182	2.0105219905652234e-006
0.256250	11696567977.356554	2.0105219905652234e-006
0.262500	11079642620.83107	0
0.268750	10497250862.670385	2.0105219905652234e-006
0.275000	9942724645.980732	2.0105219905652234e-006
0.281250	9415775202.1792889	0
0.287500	8915917735.9302864	2.0105219905652234e-006
0.293750	8442490119.6876888	2.0105219905652234e-006
0.300000	7994687361.2490187	0
0.306250	7571584745.9018269	0
0.312500	7172124037.9603519	1.0052609952826117e-006
0.318750	6795149231.1205006	1.0052609952826117e-006
0.325000	6441158770.4020166	1.0052609952826117e-006
0.331250	6105616533.121439	1.0052609952826117e-006
0.337500	5788783233.3907766	1.0052609952826117e-006
0.343750	5488588472.5690374	0
0.350000	5203642988.375288	1.0052609952826117e-006
0.356250	4932889969.7958984	0
0.362500	4675358137.2129307	1.0052609952826117e-006
0.368750	4430155471.8752718	1.0052609952826117e-006
0.375000	4195260513.6218462	5.0263049764130585e-007
0.381250	3972592603.7903771	0
0.387500	3759991477.7476645	5.0263049764130585e-007
0.393750	3556815106.4828825	5.0263049764130585e-007
0.400000	3362478405.2933731	0
0.406250	3178131282.6840601	5.0263049764130585e-007
0.412500	3000653519.2907286	5.0263049764130585e-007
0.418750	2829786341.4946475	5.0263049764130585e-007
0.425000	2665365183.0877538	0
0.431250	2507299047.9510999	5.0263049764130585e-007
0.437500	2355551638.8589311	5.0263049764130585e-007
0.443750	2210124252.4083982	0
0.450000	2071040440.0749271	0
0.456250	1938332641.143415	2.5131524882065292e-007
0.462500	1812029544.8054452	0
0.468750	1692494557.2763577	0
0.475000	1579220216.4897192	2.5131524882065292e-007
0.481250	1471156626.1270769	0
0.487500	1368405445.5389006	2.5131524882065292e-007
0.493750	1271063997.8066485	0
0.500000	1179216265.9877126	2.5131524882065292e-007
0.506250	1092915698.4795821	0
0.512500	1012179176.3398015	0
0.518750	936980275.69820428	1.2565762441032646e-007
0.525000	867244064.88186908	1.2565762441032646e-007
0.531250	802844175.37029445	1.2565762441032646e-007
0.537500	743448075.40120137	0
0.543750	688573119.8718214	0
0.550000	638084774.8593303	0
0.556250	591832968.81425655	0
0.562500	549645813.29259014	0
0.568750	511327304.56489742	0
0.575000	476656131.97827208	6.2828812205163231e-008
0.581250	445385614.5558176	0
0.587500	417244775.19349557	6.2828812205163231e-008
0.593750	391940521.54385275	6.2828812205163231e-008
0.600000	369160911.16880798	0
0.606250	348958310.19823068	0
0.612500	330772337.3514747	0
0.618750	314373061.98163086	6.2828812205163231e-008
0.625000	299544777.66256481	0
0.631250	286084611.09793776	6.2828812205163231e-008
0.637500	273795408.97746503	6.2828812205163231e-008
0.643750	262583164.41784674	6.2828812205163231e-008
0.650000	252189015.87328261	3.1414406102581615e-008
0.656250	242449868.58056229	3.1414406102581615e-008
0.662500	233213372.81182057	6.2828812205163231e-008
0.668750	224701732.95394629	3.1414406102581615e-008
0.675000	217111164.97303742	3.1414406102581615e-008
0.681250	209623552.07977003	3.1414406102581615e-008
0.687500	202200040.11330768	0
0.693750	194820892.08720133	3.1414406102581615e-008
0.700000	187481437.86832097	3.1414406102581615e-008
0.706250	180188482.14397424	3.1414406102581615e-008
0.712500	172835946.75034145	0
0.718750	165713450.59677291	0
0.725000	158693760.30832702	3.1414406102581615e-008
0.731250	151800404.91545114	3.1414406102581615e-008
0.737500	145651302.92379478	3.1414406102581615e-008
0.743750	139789817.61444783	0
0.750000	133901473.77320859	3.1414406102581615e-008
0.756250	128082651.63978484	0
0.762500	122398318.04335311	1.5707203051290808e-008
0.768750	116907921.62691846	1.5707203051290808e-008
0.775000	111662520.85508987	0
0.781250	106702986.97085233	1.5707203051290808e-008
0.787500	102058565.05425385	1.5707203051290808e-008
0.793750	97745953.251724139	0
0.800000	93768923.971483007	0
0.806250	90615590.566321865	1.5707203051290808e-008
0.812500	87659616.761911377	0
0.818750	84917300.8949572	0
0.825000	82397961.777050704	1.5707203051290808e-008
0.831250	80103264.44589819	0
0.837500	78026838.69807981	1.5707203051290808e-008
0.843750	76154128.393127874	1.5707203051290808e-008
0.850000	74462747.881776229	1.5707203051290808e-008
0.856250	72922875.815532014	1.5707203051290808e-008
0.862500	71498157.735259339	1.5707203051290808e-008
0.868750	70295177.302411288	1.5707203051290808e-008
0.875000	69307887.92174612	0
0.881250	68409749.086249366	1.5707203051290808e-008
0.887500	67564179.126373157	1.5707203051290808e-008
0.893750	66538145.370116875	7.8536015256454039e-009
0.900000	65555916.049206927	0
0.906250	64459371.539037988	1.5707203051290808e-008
0.912500	63287859.79710485	7.8536015256454039e-009
0.918750	62032684.567849673	0
0.925000	60686287.420618892	0
0.931250	59242414.748125806	0
0.937500	57953244.215402171	7.8536015256454039e-009
0.943750	56642925.073150858	1.5707203051290808e-008
0.950000	55193079.12788181	7.8536015256454039e-009
0.956250	53628110.39518512	0
0.962500	51974331.070350431	7.8536015256454039e-009
0.968750	50258910.536543749	7.8536015256454039e-009
0.975000	48508888.512179755	7.8536015256454039e-009
0.981250	46750421.454847403	0
0.987500	45008005.364920504	7.8536015256454039e-009
0.993750	43328528.760554932	7.8536015256454039e-009
1.000000	41687183.309958212	0
1.006250	40322336.461204693	7.8536015256454039e-009
1.012500	38972473.923186906	7.8536015256454039e-009
1.018750	37674275.005011864	0
1.025000	36420114.504150502	0
1.031250	35303277.078619175	7.8536015256454039e-009
1.037500	34305101.542558089	7.8536015256454039e-009
1.043750	33439041.130446561	7.8536015256454039e-009
1.050000	32709365.065881573	3.9268007628227019e-009
1.056250	32118104.808077045	3.9268007628227019e-009
1.062500	31660658.469081886	3.9268007628227019e-009
1.068750	31368140.461007856	7.8536015256454039e-009
1.075000	31263817.76119744	3.9268007628227019e-009
1.081250	31257601.330005415	3.9268007628227019e-009
1.087500	31339842.279416434	3.9268007628227019e-009
1.093750	31506907.512757115	3.9268007628227019e-009
1.100000	31748078.590789773	3.9268007628227019e-009
1.106250	32049236.083379187	0
1.112500	32393467.793651991	7.8536015256454039e-009
1.118750	32761391.65303462	3.9268007628227019e-009
1.125000	32849303.007414438	7.8536015256454039e-009
1.131250	33485828.891808636	3.9268007628227019e-009
1.137500	33908655.11575491	0
1.143750	34336904.642095074	7.8536015256454039e-009
1.150000	34713520.9028605	7.8536015256454039e-009
1.156250	35023223.938698597	0
1.162500	35257253.11911355	7.8536015256454039e-009
1.168750	35407400.220563225	7.8536015256454039e-009
1.175000	35467211.061880924	7.8536015256454039e-009
1.181250	35434936.360029265	7.8536015256454039e-009
1.187500	35294031.730119891	0
1.193750	35052779.476639025	7.8536015256454039e-009
1.200000	34706099.448356561	0
1.206250	34434403.291620664	0
1.212500	34058572.084356837	7.8536015256454039e-009
1.218750	33569919.160686359	7.8536015256454039e-009
1.225000	32988447.096652292	7.8536015256454039e-009
1.231250	32326594.78704866	0
1.237500	31597729.66314888	0
1.243750	30815174.537085287	3.9268007628227019e-009
1.250000	30001049.77964624	0
1.256250	29150129.342375189	0
1.262500	28281765.371661372	3.9268007628227019e-009
1.268750	27446168.492952935	7.8536015256454039e-009
1.275000	26672408.115077253	3.9268007628227019e-009
1.281250	25886387.271500252	3.9268007628227019e-009
1.287500	25103380.690299217	3.9268007628227019e-009
1.293750	24335564.94650742	3.9268007628227019e-009
1.300000	23586286.311598029	0
1.306250	22883484.006494429	0
1.312500	22230005.3586866	0
1.318750	21610764.78628362	3.9268007628227019e-009
1.325000	21046148.126320239	3.9268007628227019e-009
1.331250	20528713.440907966	3.9268007628227019e-009
1.337500	20098433.612446733	3.9268007628227019e-009
1.343750	19728476.200282186	0
1.350000	19440145.184399135	3.9268007628227019e-009
1.356250	19103774.09533802	3.9268007628227019e-009
1.362500	18846954.898043264	3.9268007628227019e-009
1.368750	18622966.618792746	0
1.375000	18426703.113590568	0
1.381250	18251595.085760903	3.9268007628227019e-009
1.387500	18089757.657332152	0
1.393750	17933290.09673842	3.9268007628227019e-009
1.400000	17770139.514248583	0
1.406250	17673938.415917028	3.9268007628227019e-009
1.412500	17568720.625008609	0
1.418750	17437239.78205213	0
1.425000	17290259.895040456	0
1.431250	17120137.067232694	0
1.437500	16923388.479678072	3.9268007628227019e-009
1.443750	16698722.29475506	0
1.450000	16441541.9310298	3.9268007628227019e-009
1.456250	16152468.736346152	0
1.462500	15830361.188278396	0
1.468750	15495375.864100644	0
1.475000	15177291.887218097	0
1.481250	14817374.863514375	1.963400381411351e-009
1.487500	14412064.979645047	0
1.493750	13993382.120373342	1.963400381411351e-009
1.500000	13540549.298393752	3.9268007628227019e-009
1.506250	13068041.821329996	0
1.512500	12581353.356334997	1.963400381411351e-009
1.518750	12085800.360541103	1.963400381411351e-009
1.525000	11587740.754500089	0
1.531250	10919449.298291123	1.963400381411351e-009
1.537500	10627028.171710921	0
1.543750	10177148.47455805	1.963400381411351e-009
1.550000	9726137.4936335795	1.963400381411351e-009
1.556250	9280901.1242304575	1.963400381411351e-009
1.562500	8847640.1667151619	0
1.568750	8431736.6681766454	1.963400381411351e-009
1.575000	8037667.7681078333	9.8170019070567548e-010
1.581250	7668952.8739292827	0
1.587500	7328120.2562020477	9.8170019070567548e-010
1.593750	7015959.8351989146	0
1.600000	6735278.0717775766	9.8170019070567548e-010
1.606250	6506100.5660666982	9.8170019070567548e-010
1.612500	6299280.5102644395	9.8170019070567548e-010
1.618750	6116158.6712410888	0
1.625000	5957466.5832631895	0
1.631250	5821942.5218307907	0
1.637500	5710875.2501455164	0
1.643750	5624744.5527506527	9.8170019070567548e-010
1.650000	5557455.7865641722	9.8170019070567548e-010
1.656250	5512134.5629261117	9.8170019070567548e-010
1.662500	5481928.0570543557	0
1.668750	5473105.7833956182	0
1.675000	5490652.0544223962	9.8170019070567548e-010
1.681250	5517508.2437886214	9.8170019070567548e-010
1.687500	5552250.2400282649	9.8170019070567548e-010
1.693750	5593475.4202269772	9.8170019070567548e-010
1.700000	5639788.7273068065	9.8170019070567548e-010
1.706250	5689795.4415108841	9.8170019070567548e-010
1.712500	5742101.1157774646	9.8170019070567548e-010
1.718750	5795292.4830368031	9.8170019070567548e-010
1.725000	5847984.0824704003	9.8170019070567548e-010
1.731250	5898904.8102942761	9.8170019070567548e-010
1.737500	5965430.7381221727	0
1.743750	6037442.6913436586	0
1.750000	6105820.3128651539	0
1.756250	6170960.7433981681	9.8170019070567548e-010
1.762500	6233322.4543256769	0
1.768750	6293367.426242006	9.8170019070567548e-010
1.775000	6351500.2238556687	9.8170019070567548e-010
1.781250	6408092.9928699145	9.8170019070567548e-010
1.787500	6462881.2017057687	0
1.793750	6517322.4378293613	9.8170019070567548e-010
1.800000	6570020.1545726284	0
1.806250	6648990.1670937976	0
1.812500	6724969.2846837658	9.8170019070567548e-010
1.818750	6801725.4806184601	1.963400381411351e-009
1.825000	6879154.6170785818	9.8170019070567548e-010
1.831250	6957847.5765608568	9.8170019070567548e-010
1.837500	7038129.6666151118	0
1.843750	7120036.2887501251	0
1.850000	7203331.7449096311	9.8170019070567548e-010
1.856250	7287478.5336069316	0
1.862500	7371655.5619734321	9.8170019070567548e-010
1.868750	7463526.6997594191	0
1.875000	7572172.4027425302	0
1.881250	7680946.2617734913	9.8170019070567548e-010
1.887500	7790619.5486451779	9.8170019070567548e-010
1.893750	7899235.1082115229	1.963400381411351e-009
1.900000	8008635.7043778896	0
1.906250	8117478.2364773732	9.8170019070567548e-010
1.912500	8225047.4189435672	9.8170019070567548e-010
1.918750	8330430.2313106786	9.8170019070567548e-010
1.925000	8437816.3731894046	0
1.931250	8535961.7992036901	1.963400381411351e-009
1.937500	8648442.9084174279	1.963400381411351e-009
1.943750	8766497.3059823643	0
1.950000	8876139.8649822809	1.963400381411351e-009
1.956250	8987107.5343181901	1.963400381411351e-009
1.962500	9094239.16430429	1.963400381411351e-009
1.968750	9197341.9543175828	1.963400381411351e-009
1.975000	9296060.4866267722	0
1.981250	9389881.4074784834	0
1.987500	9478127.5295232218	0
1.993750	9559967.7838546745	1.963400381411351e-009
2.000000	9634427.8577070478	1.963400381411351e-009
2.006250	9733277.5896469932	0
2.012500	9830631.516245354	1.963400381411351e-009
2.018750	9920080.9513391666	1.963400381411351e-009
2.025000	10004447.558178138	1.963400381411351e-009
2.031250	10083983.179278139	1.963400381411351e-009
2.037500	10158701.652152555	1.963400381411351e-009
2.043750	10228367.822422158	1.963400381411351e-009
2.050000	10292491.907318246	1.963400381411351e-009
2.056250	10351326.16558796	1.963400381411351e-009
2.062500	10402398.412137698	1.963400381411351e-009
2.068750	10457316.997648176	1.963400381411351e-009
2.075000	10528770.823448414	1.963400381411351e-009
2.081250	10592875.795705643	1.963400381411351e-009
2.087500	10650792.132653443	0
2.093750	10700901.013717487	0
2.100000	10741536.868871437	1.963400381411351e-009
2.106250	10777436.150561092	0
2.112500	10805397.120701373	0
2.118750	10824588.335815314	1.963400381411351e-009
2.125000	10833962.435728269	0
2.131250	10832273.483135162	1.963400381411351e-009
2.137500	10845019.855887251	1.963400381411351e-009
2.143750	10859113.565099711	1.963400381411351e-009
2.150000	10861784.263974454	1.963400381411351e-009
2.156250	10853374.092019528	0
2.162500	10833905.63367936	0
2.168750	10803831.964219449	1.963400381411351e-009
2.175000	10763137.181245686	1.963400381411351e-009
2.181250	10711655.115147742	0
2.187500	10648063.662166832	1.963400381411351e-009
2.193750	10573711.655621106	1.963400381411351e-009
2.200000	10488574.648987982	1.963400381411351e-009
2.206250	10545122.660450863	1.963400381411351e-009
2.212500	10356483.766200121	1.963400381411351e-009
2.218750	10272165.415867776	0
2.225000	10177222.673450561	0
2.231250	10071869.356669437	1.963400381411351e-009
2.237500	9957788.9402903263	1.963400381411351e-009
2.243750	9834482.8656799365	0
2.250000	9704716.5397480708	1.963400381411351e-009
2.256250	9564961.0324950945	1.963400381411351e-009
2.262500	9419138.9859384317	1.963400381411351e-009
2.268750	9276119.0540044066	1.963400381411351e-009
2.275000	9148191.7058926281	1.963400381411351e-009
2.281250	9010401.0717276223	1.963400381411351e-009
2.287500	8869688.513367312	1.963400381411351e-009
2.293750	8721213.1084460933	1.963400381411351e-009
2.300000	8567041.0582523663	1.963400381411351e-009
2.306250	8409418.6686729211	1.963400381411351e-009
2.312500	8248831.1399251092	9.8170019070567548e-010
2.318750	8085036.8875523154	9.8170019070567548e-010
2.325000	7919185.3729589153	9.8170019070567548e-010
2.331250	7751233.9219236523	0
2.337500	7607422.0195394559	0
2.343750	7468984.2211474571	0
2.350000	7296335.6602178011	9.8170019070567548e-010
2.356250	7141072.2411514223	0
2.362500	6985169.2479074951	9.8170019070567548e-010
2.368750	6826674.0093969535	1.963400381411351e-009
2.375000	6664691.0531129614	0
2.381250	6504995.1895874944	9.8170019070567548e-010
2.387500	6342718.3530103322	9.8170019070567548e-010
2.393750	6180054.7099461714	0
2.400000	6016289.0400001975	9.8170019070567548e-010
2.406250	5872691.3686716044	0
2.412500	5725416.3479029695	0
2.418750	5575916.5853733402	9.8170019070567548e-010
2.425000	5424688.4738957789	9.8170019070567548e-010
2.431250	5273041.9528874485	9.8170019070567548e-010
2.437500	5121162.8680917611	0
2.443750	4969547.5941537479	0
2.450000	4818951.5528196096	0
2.456250	4668932.1445446778	9.8170019070567548e-010
2.462500	4519983.0975452783	9.8170019070567548e-010
2.468750	4377660.7921758601	9.8170019070567548e-010
2.475000	4245934.8003371451	9.8170019070567548e-010
2.481250	4113844.3005575528	0
2.487500	3982496.9712538337	0
2.493750	3852758.6855492936	4.9085009535283774e-010
2.500000	3725175.7891200641	0
2.506250	3600998.2303708578	9.8170019070567548e-010
2.512500	3480541.0165901361	0
2.518750	3364082.9629232911	0
2.525000	3252042.9818572565	4.9085009535283774e-010
2.531250	3144700.6854060474	0
2.537500	3048894.9426269545	4.9085009535283774e-010
2.543750	2959889.8636580077	4.9085009535283774e-010
2.550000	2874209.1928382446	4.9085009535283774e-010
2.556250	2792906.0115586226	4.9085009535283774e-010
2.562500	2716272.2618695414	4.9085009535283774e-010
2.568750	2644286.8885228233	4.9085009535283774e-010
