#List of files for average calculation
#C:\Lea\runGPU\100nmRod_Scripted_Vegas\100nmRod_Scripted_Vegas_1
#C:\Lea\runGPU\100nmRod_Scripted_Vegas\100nmRod_Scripted_Vegas_2
#C:\Lea\runGPU\100nmRod_Scripted_Vegas\100nmRod_Scripted_Vegas_3
#C:\Lea\runGPU\100nmRod_Scripted_Vegas\100nmRod_Scripted_Vegas_4
#C:\Lea\runGPU\100nmRod_Scripted_Vegas\100nmRod_Scripted_Vegas_5
#C:\Lea\runGPU\100nmRod_Scripted_Vegas\100nmRod_Scripted_Vegas_6
#C:\Lea\runGPU\100nmRod_Scripted_Vegas\100nmRod_Scripted_Vegas_7
#C:\Lea\runGPU\100nmRod_Scripted_Vegas\100nmRod_Scripted_Vegas_8
#C:\Lea\runGPU\100nmRod_Scripted_Vegas\100nmRod_Scripted_Vegas_9
#C:\Lea\runGPU\100nmRod_Scripted_Vegas\100nmRod_Scripted_Vegas_10
#Average Chi square (Sigma units): 1.3594446094456
#Sigma Chi square: 0.23917402573329
#Calculation was done on GPU
q [nm^-1]	Intensity [A.U]	Sigma [A.U]
0.000000	443046541.56490123	6.2828812205163231e-008
0.006250	439071720.86797845	31965.689491605888
0.012500	424308821.87159288	89768.128731942663
0.018750	400977534.98178875	91390.532932546674
0.025000	371545901.95931011	14753.831402905877
0.031250	339123965.78207219	47501.125959899793
0.037500	307061009.16677713	151964.28544938492
0.043750	275074934.67566562	132458.31069269849
0.050000	245922102.00420696	119396.37293447115
0.056250	221108146.28276095	96311.293803502223
0.062500	200538155.51666686	63490.888516020379
0.068750	183048068.93364188	50925.352631236885
0.075000	168350479.41497287	48399.026167009128
0.081250	156196135.09840885	83273.355427540533
0.087500	146156360.74098599	57488.87927968752
0.093750	137771932.5898985	44645.063403253705
0.100000	130335983.76904777	74308.255622751094
0.106250	123356517.80998302	43131.798631083904
0.112500	116822581.26135571	46982.350772203979
0.118750	110773980.74135633	46793.509249584386
0.125000	105338780.18086703	53377.22717500187
0.131250	100324533.29975931	51729.9223560174
0.137500	95714240.271825254	59040.542680161547
0.143750	91629192.433544844	49809.113428479548
0.150000	87990910.85171479	49457.368576606059
0.156250	84772363.732225209	46432.796568254373
0.162500	81709854.19350332	46731.571762797837
0.168750	78789987.566920549	36490.833837886043
0.175000	76033723.351291269	34601.930236829918
0.181250	73409100.70955947	30750.973616428444
0.187500	70981519.644970804	48311.039599313364
0.193750	68634591.239142284	50226.605111581302
0.200000	66439494.549014226	43683.116592511113
0.206250	64425104.42155496	39127.41202560925
0.212500	62547982.678060576	21841.92195045968
0.218750	60853023.302373394	24664.404094023117
0.225000	59196987.728303216	32681.012001075909
0.231250	57615818.850639798	35791.560459507891
0.237500	56101568.42131497	39452.666413438041
0.243750	54640386.514340021	35667.601558891482
0.250000	53252359.57635583	37400.31809558814
0.256250	51894600.288344532	31325.020866589872
0.262500	50610665.314822003	27792.116525517453
0.268750	49407559.287080333	25479.682218278609
0.275000	48268148.869268164	27647.804179389623
0.281250	47203033.567505442	26893.615924911996
0.287500	46166630.417252295	26884.099294599157
0.293750	45174852.088637277	25807.946607016238
0.300000	44221612.820246473	28462.610874923939
0.306250	43295322.750674151	22057.669758382883
0.312500	42388464.792578168	22103.186156352116
0.318750	41507383.294763066	21671.160315401838
0.325000	40667924.479724929	22833.026554442422
0.331250	39868222.969532356	24080.102352103451
0.337500	39132201.403128505	27355.824586484927
0.343750	38401998.183701709	28800.809195002916
0.350000	37690700.404756226	30995.390542411671
0.356250	37005954.318330467	31987.236894662499
0.362500	36335194.835076906	32321.591030315998
0.368750	35689701.459388606	17016.127695099596
0.375000	35050135.284624383	19439.855692355428
0.381250	34426702.643222116	21178.569368420474
0.387500	33831877.923421063	25171.172380616998
0.393750	33254567.844204813	27274.619535845661
0.400000	32715637.157582812	37466.106600506835
0.406250	32183355.853949189	36116.517412158864
0.412500	31667794.473773092	33769.419929630152
0.418750	31168736.653840385	29736.666547694498
0.425000	30653846.312849008	17981.449890933833
0.431250	30180202.272817843	17188.115944238867
0.437500	29706202.535335802	15912.452134351119
0.443750	29247747.691118229	14532.248548771904
0.450000	28805162.082698621	13996.184589674376
0.456250	28358611.103282146	25771.995416431524
0.462500	27943578.966866821	25626.759462859249
0.468750	27535670.541624554	25803.56022495568
0.475000	27143219.464959364	24426.469301420992
0.481250	26760819.406426392	23181.833844100322
0.487500	26394150.71925921	14058.207563078669
0.493750	26019778.719513696	11951.590007244891
0.500000	25648846.278830566	9657.8125313292239
0.506250	25290875.205639303	8513.326740637709
0.512500	24943166.705885958	8696.640434386416
0.518750	24616070.163139451	20432.384439758393
0.525000	24286325.064648665	19222.492092969998
0.531250	23963046.534528129	18314.458302928211
0.537500	23650044.247500069	18546.025104375727
0.543750	23343857.295683213	18312.453549973368
0.550000	23042549.298461877	9619.5622777040517
0.556250	22744753.124681454	9436.5544023807633
0.562500	22450973.338928778	9481.7938808728595
0.568750	22165445.918809354	9968.1327292180067
0.575000	21883387.339330394	10541.996323043153
0.581250	21613537.357764889	12153.026378421522
0.587500	21344135.439654052	12352.900661844014
0.593750	21083098.571193833	11893.665356792675
0.600000	20829172.687420331	11753.113926795266
0.606250	20575973.520274166	11572.433984302404
0.612500	20332945.464183852	11930.278464240386
0.618750	20087704.581679989	12193.83663710779
0.625000	19847487.326561593	12703.606195906799
0.631250	19613562.681797855	13481.669774042843
0.637500	19382665.190620489	22212.600986761718
0.643750	19159793.873174988	21801.854330448634
0.650000	18938204.989638075	21603.005174918493
0.656250	18722533.286900353	21133.327209014034
0.662500	18511853.55840788	20650.692334947595
0.668750	18301188.751980618	11689.943123658695
0.675000	18094674.294549827	10174.876515511376
0.681250	17888340.290426761	8953.8341248118722
0.687500	17686557.879431557	8022.3031988295106
0.693750	17488699.094293475	8143.1225963272473
0.700000	17301132.7942883	15836.484700228171
0.706250	17110566.247206047	14595.487939597682
0.712500	16922796.129257806	13628.101232763263
0.718750	16740557.001833905	13384.233864680429
0.725000	16561476.112728465	13547.144159060143
0.731250	16375302.177140787	16462.622906432953
0.737500	16199212.650827359	15850.641705008486
0.743750	16024658.232919019	15208.514025948025
0.750000	15853954.708945423	14388.334102964283
0.756250	15684514.939753598	13710.097777643499
0.762500	15536860.080237955	12849.119583825079
0.768750	15371310.237333164	13357.919256502322
0.775000	15208891.013682956	14233.251962306675
0.781250	15050907.187306095	15160.160777566121
0.787500	14894070.640232626	15878.340410256526
0.793750	14733255.09994781	6941.4793848475892
0.800000	14580599.571869558	6416.1529799005793
0.806250	14430373.820057536	6420.9792237070897
0.812500	14283127.837466404	6866.5526597862809
0.818750	14135920.766718145	5656.5332451917666
0.825000	13992785.166827336	5733.2059537798295
0.831250	13849843.758012205	6393.135536366106
0.837500	13710448.627629142	7387.6135502953384
0.843750	13574637.809360538	8229.7213850456119
0.850000	13441396.215713942	12239.105867985914
0.856250	13307662.44581023	11520.166819811569
0.862500	13173706.4122012	10888.168167474056
0.868750	13042217.971000731	10516.081404429679
0.875000	12912786.307911346	10422.799085931345
0.881250	12790251.251361657	12519.875305316678
0.887500	12663821.213530766	12975.909119438767
0.893750	12538425.859026039	13274.596382844953
0.900000	12416258.953362755	13356.471512249887
0.906250	12296255.120416988	13230.338090956586
0.912500	12174736.284989756	11539.973334909759
0.918750	12056709.808609406	11374.591619823515
0.925000	11939616.838286266	10979.918542831805
0.931250	11824758.696447928	10717.340542869048
0.937500	11710829.755482463	10253.912611922684
0.943750	11600423.668975074	8341.1684814116816
0.950000	11487629.391534815	8173.9609660252008
0.956250	11376816.139701698	7873.8045288718622
0.962500	11268819.979303552	7806.9613933089031
0.968750	11161809.186945096	7877.7559736026715
0.975000	11057175.890272392	7044.2350051846561
0.981250	10952254.239798503	7349.0785628720214
0.987500	10848704.486738389	7849.6186734434168
0.993750	10746717.515731364	8689.3793107159072
1.000000	10644519.634366376	8990.5307386901022
1.006250	10548775.733785314	8804.5367131776147
1.012500	10447857.416434806	8688.8611937448077
1.018750	10348899.646496292	8573.2158649818484
1.025000	10252374.97119914	8721.2212191731633
1.031250	10146817.560143087	12011.136220847246
1.037500	10053094.715451403	12161.949859865623
1.043750	9959350.8258329201	12136.032927540324
1.050000	9867405.7930386346	11996.110392157125
1.056250	9776842.6834994964	11748.590290538245
1.062500	9688145.7555182986	8790.9713447019858
1.068750	9597667.1964161955	8856.196409731534
1.075000	9507343.4401634	9074.3663135122879
1.081250	9418999.9045472182	9283.9342158147374
1.087500	9332190.3772543501	9462.0733986549585
1.093750	9248596.4235035032	8710.1149166165887
1.100000	9162888.8082764111	8097.3119352949152
1.106250	9078230.2407035418	7740.4195179766439
1.112500	8995282.7650758624	7460.6837808296104
1.118750	8913085.1453254614	7281.2284683960697
1.125000	8828275.4729462676	8034.126988799937
1.131250	8745934.6815496329	8035.7894031290916
1.137500	8664371.4754933715	8003.006641115765
1.143750	8584706.4550883956	7942.4683117801442
1.150000	8505799.9334335998	7879.1895322840282
1.156250	8435600.0128717404	8135.3766839930577
1.162500	8358247.4496761113	7882.9445911464209
1.168750	8281817.4276249558	7624.1390743142319
1.175000	8206696.0154529158	7370.2901753930428
1.181250	8131370.8648275863	7115.4889687709301
1.187500	8053166.5738367513	6883.291465397363
1.193750	7978513.5305957915	6860.6114676687639
1.200000	7905184.9877194436	6894.8198538382894
1.206250	7833492.1655858112	6902.7553153765839
1.212500	7764554.0950066922	6054.7344235887531
1.218750	7694255.0936525138	5795.9896090052835
1.225000	7623773.3824270871	5608.6837635201782
1.231250	7554673.1471143663	5520.9920096950727
1.237500	7486746.8739492763	5456.1011211839486
1.243750	7416294.8939965814	6975.3825292440351
1.250000	7348916.4456102131	6972.5984627741545
1.256250	7281475.7090651691	6990.5976649571021
1.262500	7215379.3780689538	6976.5025824142658
1.268750	7150253.0879217777	6911.7240277817673
1.275000	7084598.5232704179	6817.9619119498948
1.281250	7020255.1833432885	6645.7536308999779
1.287500	6956295.2636718098	6462.373429301676
1.293750	6893504.132102442	6207.255030091902
1.300000	6831233.7419213355	5916.2019797928324
1.306250	6767624.1795946462	7405.1785825860325
1.312500	6705242.351468239	7411.7042555514981
1.318750	6643310.3069971502	7460.5910673640392
1.325000	6582604.2735118512	7524.1702641425518
1.331250	6522636.0773168989	7563.4753418714681
1.337500	6466338.9803293273	6303.7623701315006
1.343750	6406868.6812312221	6316.1736644034645
1.350000	6348304.1128148194	6318.330381771485
1.356250	6290809.4482020056	6446.2574275248971
1.362500	6233588.9659925345	6619.2455660394353
1.368750	6176238.6116582789	5363.1594830376953
1.375000	6119067.1479841815	5335.2852981949591
1.381250	6062639.6772341207	5329.0070901132322
1.387500	6007288.4865965229	5320.4367339268883
1.393750	5951970.4519123388	5306.6123383025524
1.400000	5894545.8229004433	4667.3697230253074
1.406250	5839930.518220162	4720.7064017053417
1.412500	5786352.3260265617	4763.1878810522594
1.418750	5733822.5739282947	4778.7282742674288
1.425000	5681313.5309029613	5245.4119583821939
1.431250	5628933.312959915	5218.6024058594276
1.437500	5576460.2327049281	5276.2099603205188
1.443750	5524912.9934345838	5408.6941137188069
1.450000	5474293.3389944853	5468.8035906754358
1.456250	5422109.6013834393	4440.4575693938441
1.462500	5371728.4084571656	4308.1184839201369
1.468750	5321651.9204792101	4088.9373933759671
1.475000	5272668.5494723413	3946.629006008181
1.481250	5224325.5887062782	3897.9913393336096
1.487500	5177851.3280653767	4037.1284241678927
1.493750	5129607.5628631394	4058.4616757387212
1.500000	5081594.1610519076	4091.1601118187341
1.506250	5034458.8731744979	4167.7951378616572
1.512500	4987966.1816554852	4156.5198730943248
1.518750	4941721.3083282392	5097.4169466966732
1.525000	4895075.9126416817	5046.1221741447443
1.531250	4849092.1764152367	4974.752018914206
1.537500	4804194.8225288484	4948.0444299868359
1.543750	4759689.1959059974	4961.5531082229681
1.550000	4715710.2530623171	5165.5029957733923
1.556250	4671014.4102195371	5174.0567147000575
1.562500	4626884.9491551304	5195.8485822469247
1.568750	4583616.0126841711	5272.9312879967174
1.575000	4540619.8948209155	5285.4341942092205
1.581250	4496769.8683044743	3895.8221097916085
1.587500	4453654.8848903459	3917.0456532068497
1.593750	4411404.5324909333	3880.384615125784
1.600000	4370080.5512755038	3830.711668852065
1.606250	4330830.5280453227	3563.9085797105495
1.612500	4289989.5484871427	3463.4948920630623
1.618750	4248930.4789341837	3368.5470083794521
1.625000	4208583.8303087857	3300.653320266907
1.631250	4168865.1487513715	3209.9204539006623
1.637500	4128688.9284580485	3049.059036476604
1.643750	4088899.5666369409	2916.9144986026117
1.650000	4049211.889174371	2814.5951724665583
1.656250	4010394.0588483289	2769.2768392638604
1.662500	3972299.093178092	2780.5039348587093
1.668750	3932428.9683531849	2787.0508479356131
1.675000	3894491.1084719235	2794.7390183060952
1.681250	3856727.7286475198	2798.4944204268695
1.687500	3819696.0949784396	2810.6325683353693
1.693750	3783078.5973397195	2719.8960014918312
1.700000	3749966.4200080605	3399.3277238420533
1.706250	3713181.5455311583	3488.0029938487341
1.712500	3676743.0160323055	3603.1451009624852
1.718750	3641092.9673757153	3694.207519166107
1.725000	3605828.6990674944	3739.973189029698
1.731250	3569479.8247475983	3082.353315248406
1.737500	3534286.6668332876	3174.8678325044339
1.743750	3499491.0589979934	3277.5057826169623
1.750000	3465342.4426753148	3386.6889048902335
1.756250	3431416.4277706733	3427.5255092635962
1.762500	3396699.5604808307	3016.5826784269129
1.768750	3362569.8848860683	2792.7646883003904
1.775000	3329046.4859106606	2684.5465427280374
1.781250	3296248.2406004928	2585.1104713063573
1.787500	3263632.0920810266	2524.2730781072119
1.793750	3233526.5695327101	2617.9868815370837
1.800000	3201022.3915791837	2604.4123737594396
1.806250	3169059.3211499327	2606.9180416334366
1.812500	3137664.2926585623	2598.5954167525592
1.818750	3105992.085420243	4117.2150790790465
1.825000	3074587.0826476081	4162.4464146640839
1.831250	3043176.8372301511	4174.5376527731405
1.837500	3012439.3712437237	4180.0121522877362
1.843750	2982339.8635211573	4077.4562609361496
1.850000	2952149.7506859316	2975.1385968947188
1.856250	2922227.8359178598	2982.7840414997531
1.862500	2892430.9560652343	2998.0666818241621
1.868750	2863182.3797620004	2969.7134434937357
1.875000	2834365.8811092447	2952.8834771649108
1.881250	2805615.6446052799	3016.3947047060406
1.887500	2776532.8736787811	2979.0913660622937
1.893750	2747691.5606260137	2936.1925627829633
1.900000	2719475.5239769416	2887.8913636494594
1.906250	2691646.2214568378	2857.7129117422724
1.912500	2662576.4048530683	2429.1498895547388
1.918750	2634800.6277124612	2419.3904072309383
1.925000	2607355.2196525312	2329.8202663078091
1.931250	2580477.7719144886	2189.0758349620769
1.937500	2553801.3704374339	2046.7261694379315
1.943750	2527063.2124758922	2123.5890487819188
1.950000	2500315.5282615907	2108.8239602527051
1.956250	2473955.5296417875	2088.4826209653597
1.962500	2448172.1505499147	2072.6929488179171
1.968750	2422611.0847848156	2046.2178994623957
1.975000	2397182.1714910101	2025.45813077053
1.981250	2371571.6815462825	1904.1194076979468
1.987500	2346403.0495696543	1814.3559211488962
1.993750	2321719.9302452141	1743.6059626611398
2.000000	2297036.2923997832	1690.1960518898568
2.006250	2272478.1091402848	2063.0586579320016
2.012500	2247798.535373277	2025.3855966551043
2.018750	2223642.4310866408	2008.1698278538372
2.025000	2199969.3225815785	2022.7017448443603
2.031250	2176153.1381450379	2071.546795731867
2.037500	2152505.8275400167	2072.7769714040096
2.043750	2128930.3010965842	2060.8834397480564
2.050000	2105815.0542813926	2015.4570686603458
2.056250	2083165.7788348396	1957.588871497634
2.062500	2060821.6228722092	1601.1207939756871
2.068750	2038058.9189067078	1508.8371629436788
2.075000	2015457.9124253294	1397.9637683003459
2.081250	1993347.9140515421	1296.3076282955903
2.087500	1971596.5724492862	1252.7566457452906
2.093750	1950400.423295774	1499.4948251845449
2.100000	1928538.8195743929	1566.8152289235416
2.106250	1906919.3338011578	1664.8813079602719
2.112500	1885792.4189732925	1767.2312995545747
2.118750	1864938.5900157478	1836.1039528106805
2.125000	1843391.419028844	1885.4588048092273
2.131250	1822237.0841616094	1751.5363883040284
2.137500	1801369.5301050872	1584.8130302603151
2.143750	1780990.4637929895	1422.1124314765495
2.150000	1760858.4147849684	1291.5914434536494
2.156250	1740994.0648991033	1919.4319629245949
2.162500	1721010.6506995638	2037.105586650466
2.168750	1701412.88224915	2126.7458202791331
2.175000	1682257.4498434351	2174.1124178803652
2.181250	1663167.1202158169	2165.9648010709516
2.187500	1643580.1998282366	1455.7625747682725
2.193750	1624286.2548358976	1407.6223733785509
2.200000	1605352.3242416806	1420.4893890339213
2.206250	1586787.444711423	1419.4187559063378
2.212500	1569041.6763495163	1638.9321751322123
2.218750	1550556.4376104763	1638.7663979690574
2.225000	1532141.6865671189	1656.2580911578423
2.231250	1514143.1051296133	1670.6865088373083
2.237500	1496556.3934524045	1725.5436519317948
2.243750	1478173.5473222812	1728.8175526638245
2.250000	1460486.3284174118	1763.797347532696
2.256250	1442892.5288734005	1770.2343922137195
2.262500	1425702.6105040584	1760.3119416422523
2.268750	1408829.6771758616	1713.2173250586909
2.275000	1391723.7598983499	1273.1159425720566
2.281250	1374758.216319826	1264.3237527635099
2.287500	1358006.2019020864	1245.1867043058853
2.293750	1341687.7365245488	1223.4768592370121
2.300000	1325624.2717098468	1187.1002854457474
2.306250	1309978.6031002295	842.67794770970193
2.312500	1293840.9161774321	791.94490861371116
2.318750	1277908.0348916496	769.14570628988861
2.325000	1262335.4198589209	771.03559163284729
2.331250	1246941.0033380501	794.72648479828297
2.337500	1231496.1032811881	982.72168447810122
2.343750	1215998.0228726361	1005.2454609203097
2.350000	1200781.4120837867	1013.634212995246
2.356250	1185938.7558350712	1021.278390811488
2.362500	1171236.193892475	1023.8196778805003
2.368750	1155809.1804933054	937.1874812450618
2.375000	1141004.704867044	892.91311302202064
2.381250	1126497.9984443211	852.11574528812378
2.387500	1112349.2852445343	823.24482098395742
2.393750	1098296.8595833899	811.51912200881043
2.400000	1084156.098318276	762.67513014381518
2.406250	1070078.7469062372	714.11505840281029
2.412500	1056338.2252741551	656.75060947488907
2.418750	1042919.9053500755	597.6035198203225
2.425000	1029642.0529323112	968.83731472659929
2.431250	1016200.7072581456	932.88478166238247
2.437500	1002794.0958289674	889.59145185092075
2.443750	989665.60095519759	851.30513632748455
2.450000	976774.18283420429	829.69695691618699
2.456250	963612.81434699276	675.46854594830313
2.462500	950677.01892318833	651.8144550060224
2.468750	937858.1903062982	661.49104872427097
2.475000	925366.52300091437	698.39572391978368
2.481250	913114.33432417514	743.59796309748788
2.487500	901148.50283277291	940.10286006851015
2.493750	888824.26452499419	946.94760400384405
2.500000	876650.39866049471	941.15836988917226
2.506250	864756.06209925003	930.64012476466712
2.512500	853058.26751125359	913.49740182319852
2.518750	841202.06785610504	761.83091906161883
2.525000	829481.48605820129	758.32051744601779
2.531250	817988.29920857714	790.8857350061736
2.537500	806804.04909264564	811.28496651752732
2.543750	795771.91090086545	821.25706653418069
2.550000	784786.35606820986	669.25512534190045
