#List of files for average calculation
#C:\Lea\runGPU\2\3Cylinders_Vegas\3Cylinders_Vegas_1
#C:\Lea\runGPU\2\3Cylinders_Vegas\3Cylinders_Vegas_2
#C:\Lea\runGPU\2\3Cylinders_Vegas\3Cylinders_Vegas_3
#C:\Lea\runGPU\2\3Cylinders_Vegas\3Cylinders_Vegas_4
#C:\Lea\runGPU\2\3Cylinders_Vegas\3Cylinders_Vegas_5
#C:\Lea\runGPU\2\3Cylinders_Vegas\3Cylinders_Vegas_6
#C:\Lea\runGPU\2\3Cylinders_Vegas\3Cylinders_Vegas_7
#C:\Lea\runGPU\2\3Cylinders_Vegas\3Cylinders_Vegas_8
#C:\Lea\runGPU\2\3Cylinders_Vegas\3Cylinders_Vegas_9
#C:\Lea\runGPU\2\3Cylinders_Vegas\3Cylinders_Vegas_10
#Average Chi square (Sigma units): 1.4167371166057
#Sigma Chi square: 0.3810670577167
#Calculation was done on GPU
q [nm^-1]	Intensity [A.U]	Sigma [A.U]
0.000000	3574187420.4544611	0
0.006250	3574699087.0689025	4412.3786519125561
0.012500	3573687990.4739294	1905.8407903234352
0.018750	3571145363.0501108	18347.315610802369
0.025000	3567115617.6991935	3088.4114377314118
0.031250	3561576809.5856409	9095.0416155195653
0.037500	3554556287.3470359	11622.660473719716
0.043750	3546039290.7273588	30025.443252693425
0.050000	3536112269.0673256	37214.303779231108
0.056250	3524723981.8923354	38173.617364523016
0.062500	3511934264.4192138	9945.6484816445081
0.068750	3498573541.7827578	9644.1457170533449
0.075000	3485451234.4860153	51804.859727888041
0.081250	3470922114.0578752	71222.888824854817
0.087500	3454919944.040844	240895.05702158573
0.093750	3437742385.124392	27483.973339052398
0.100000	3419112509.4576788	33326.348195006591
0.106250	3399094229.7946143	215722.08482283345
0.112500	3377844045.8400221	181616.45622647717
0.118750	3355394395.6732149	126674.85324560886
0.125000	3331535563.6061778	243031.13036446588
0.131250	3306747710.3120337	67103.755059327872
0.137500	3282093963.7860131	33474.177814207171
0.143750	3256906164.7207069	95163.064487088646
0.150000	3230581461.8112669	87727.969634583525
0.156250	3203089154.1064057	72253.953639761545
0.162500	3174499877.3481808	45371.86549614754
0.168750	3144798076.668335	119544.11589550525
0.175000	3114071922.681365	119208.38384842027
0.181250	3082397595.3575654	178662.57618063249
0.187500	3049752227.1139135	180731.74775738516
0.193750	3016238475.6861868	321497.49351040699
0.200000	2981995399.6930513	65282.486746319868
0.206250	2948688496.9480133	81719.368654366524
0.212500	2914412799.8681593	107211.41770402902
0.218750	2879316444.8995795	240300.92855833669
0.225000	2843407766.954844	452047.00271046086
0.231250	2806960659.7394209	131353.85293702449
0.237500	2769675905.101016	90753.102336856682
0.243750	2731722676.4976978	266361.11623048445
0.250000	2693293845.6799598	133765.12700932112
0.256250	2654249776.3666983	246292.98998163998
0.262500	2614906227.018054	120210.27028020687
0.268750	2575403304.5577154	110645.64853295244
0.275000	2536372466.3810568	132613.86604922317
0.281250	2496925744.6310139	116791.72757969749
0.287500	2457018398.995738	119749.94054983144
0.293750	2416664462.6790428	282729.22589905851
0.300000	2376065191.0834398	269826.30090572807
0.306250	2335184615.3048501	174803.72714046144
0.312500	2294121239.101943	180272.46978948131
0.318750	2252852448.4025049	163501.75975371996
0.325000	2211449042.1622505	215138.31048297507
0.331250	2170004211.0677381	138697.64022193631
0.337500	2129197524.7365792	158160.52157965576
0.343750	2088461940.6376278	211055.53719240706
0.350000	2047609974.7734997	280347.55432982085
0.356250	2006769055.8363595	249166.98418208133
0.362500	1965803068.4049783	488859.91469344567
0.368750	1925278432.8696404	168972.31546223623
0.375000	1884586381.3386683	173760.91502445357
0.381250	1844047038.6735959	177159.49497190406
0.387500	1803672161.8340535	209599.01602763307
0.393750	1763587068.5453885	175146.78153137525
0.400000	1723708657.6685882	176352.18356739922
0.406250	1684576815.4909596	208158.49730903984
0.412500	1645552638.9888644	357321.54744755698
0.418750	1607014217.0167208	165653.58304082791
0.425000	1568632947.2853062	237757.2464269434
0.431250	1530545642.108402	237634.78026610607
0.437500	1492891668.3273931	212771.23166378896
0.443750	1455554743.4519191	213193.93840177447
0.450000	1418554087.9539104	265838.3388255405
0.456250	1382114711.8650489	223164.5150005818
0.462500	1346097863.3481576	213569.58323409889
0.468750	1310546020.8166957	227228.2076050514
0.475000	1275667835.4574215	226356.12564268519
0.481250	1241227223.8862202	225289.37275434527
0.487500	1207226831.4768405	200733.44183721938
0.493750	1173712249.5942881	277694.08172428911
0.500000	1140767263.1531467	220925.87829414781
0.506250	1108263732.386651	264107.62208267511
0.512500	1076387523.1159706	217066.91734070238
0.518750	1045029649.28274	214862.53538450369
0.525000	1014247183.8934937	212481.38299459105
0.531250	984052842.11712074	209929.42138327856
0.537500	954587476.22467041	149961.63874781755
0.543750	925539540.61061418	125034.71523955201
0.550000	897050061.4817431	158780.96809171577
0.556250	869152458.80615354	141932.13047207735
0.562500	841814838.555987	139184.25506298544
0.568750	815051741.50397742	139370.38051081268
0.575000	788902359.85097802	133714.46592447127
0.581250	763325338.61573994	123122.86251631925
0.587500	738379320.32289016	128410.28803702045
0.593750	714012313.31270301	102404.04412295907
0.600000	690275269.92781794	123407.38093454584
0.606250	666984803.08674693	162240.75671009353
0.612500	644307981.97271895	156999.8000214737
0.618750	622202365.61068559	152033.94750041948
0.625000	600657031.35092235	159426.81445885779
0.631250	579702248.28450203	143100.68233007137
0.637500	559305119.59059083	139204.61027842862
0.643750	539472831.10354114	135723.06473988734
0.650000	520201427.8401655	132865.91563097312
0.656250	501487952.96283257	130047.14288360518
0.662500	483325431.16347665	127846.61697200699
0.668750	465628724.61952782	128572.99871586589
0.675000	448407718.83095169	123358.10468740767
0.681250	431702542.49176043	118543.6831795224
0.687500	415506243.33227456	114160.56110803816
0.693750	399811861.6008212	110233.42124234803
0.700000	384611962.28831255	106779.07165065419
0.706250	369898238.73302877	103804.92124766628
0.712500	355662522.01024163	101308.09436879463
0.718750	341895709.04200351	99274.654354294718
0.725000	328588729.28953469	97679.919140407175
0.731250	315732147.09391606	96489.25861699706
0.737500	303223447.91147393	76364.923981870685
0.743750	291123666.0626362	75067.390061945116
0.750000	279440364.82446635	73831.305753460387
0.756250	268163741.10435137	72647.238899092481
0.762500	257283884.07954067	71505.396889283948
0.768750	246790501.97817793	70395.737147519147
0.775000	236673663.54235902	69308.196327055935
0.781250	226918614.67125636	70492.029230605127
0.787500	217528282.89195982	67159.694890382991
0.793750	208479445.87062067	66079.680004890688
0.800000	199766018.4048802	64983.913254979438
0.806250	191280978.62429041	78928.7095730086
0.812500	183139903.79629368	78316.659253577294
0.818750	175308984.16290647	73420.60184160019
0.825000	167771136.13721281	79518.139498057164
0.831250	160518496.1992282	76591.650997511126
0.837500	153546494.91688198	76008.128809788919
0.843750	146843017.14295512	75400.45854192246
0.850000	140399008.9583284	74758.529000498384
0.856250	134205600.32129654	74073.44555435369
0.862500	128253920.13681039	73337.48823105474
0.868750	122541695.51020691	77695.841596764716
0.875000	117023476.02491455	74757.519051100171
0.881250	111724542.26426002	72679.072632572774
0.887500	106634472.05348626	69106.474148265639
0.893750	101747935.75361693	66395.361032641609
0.900000	97056794.1869791	63761.400733344672
0.906250	92553827.025231689	61205.051143939701
0.912500	88232211.91095303	58726.784652431052
0.918750	84085380.395171672	56327.046569331622
0.925000	80106891.025455788	54006.215068383186
0.931250	76290693.742435172	51764.784309158451
0.937500	72641890.350378036	45569.874593046261
0.943750	69137133.983913273	43440.369996417336
0.950000	65777259.774854735	41356.177982679044
0.956250	62556956.267716192	39323.141198101039
0.962500	59471325.257187746	37346.97308934731
0.968750	56515619.456878997	35433.046442356419
0.975000	53685436.776188567	33586.468309650925
0.981250	50976596.716068894	31811.949557830681
0.987500	48385065.791850306	30113.701479279716
0.993750	45907110.937625892	28495.481418924432
1.000000	43539087.69885058	26960.400710459777
1.006250	41297565.707079746	11359.784649984396
1.012500	39159543.624412522	11556.142554650683
1.018750	37118972.577853665	11959.828541058325
1.025000	35172081.621625803	12146.326058647262
1.031250	33318666.723568909	13067.763001933028
1.037500	31553776.532167446	13646.358453550645
1.043750	29875873.076494742	14182.375194119417
1.050000	28282765.087894686	14646.457861528193
1.056250	26772292.619833414	15017.833098075171
1.062500	25342487.163980942	15282.078532997624
1.068750	23995158.068317987	7442.745475681535
1.075000	22745916.944577519	6878.2635808474943
1.081250	21568129.863413889	6442.5980772298253
1.087500	20460181.302889325	6123.1731232383381
1.093750	19420622.909945447	5902.9268233174444
1.100000	18448063.801477261	5762.2113032236202
1.106250	17541175.192063972	5681.350311299665
1.112500	16698687.828451404	5643.006876562381
1.118750	15919314.688590785	5633.8412097263408
1.125000	15201831.29868643	5645.3671784645148
1.131250	14544996.758199031	5674.1647854123248
1.137500	13970503.599472079	7134.4286120558909
1.143750	13455850.02667205	6708.5086161009513
1.150000	12994724.88177998	6360.7052900269809
1.156250	12586084.331359945	6110.1310400523143
1.162500	12228464.147097876	5511.731378029167
1.168750	11922045.538121194	5989.6550842421784
1.175000	11664509.696874294	6156.6783835698452
1.181250	11455144.089723831	6485.3339374588431
1.187500	11292794.127792632	6969.8549763199826
1.193750	11176246.31218827	7596.7068358495126
1.200000	11104225.634466516	8348.7878372690848
1.206250	11099431.443139914	8004.5346948153156
1.212500	11138341.931348782	8760.0756098956772
1.218750	11216850.483644772	8401.5617078273135
1.225000	11332065.824948147	8712.0202883373131
1.231250	11483615.810055142	8130.2743054747343
1.237500	11670618.52383942	9287.8579050043973
1.243750	11890720.624565829	9657.1333086068262
1.250000	12142919.618831787	10061.088104748995
1.256250	12425723.338761972	10498.138774295267
1.262500	12737569.973737901	10966.590748607548
1.268750	13087288.559950093	15610.163673295772
1.275000	13485203.152464654	15173.484989582177
1.281250	13907935.399389084	14385.111538349658
1.287500	14352583.114741195	13815.67943271303
1.293750	14818031.051055133	13291.552466817484
1.300000	15302660.172765788	12825.984665978316
1.306250	15804838.087754533	12432.146553363265
1.312500	16322862.283070052	12122.279975888396
1.318750	16854994.697315183	11906.552715803959
1.325000	17399264.337647133	11551.877114617691
1.331250	17954399.532311849	11781.114311713185
1.337500	18538656.972809274	7716.0221676790852
1.343750	19150539.177567892	7943.5439526360478
1.350000	19768433.108889043	8288.5875524801922
1.356250	20391051.711341634	8795.8153566965175
1.362500	21015466.622123521	9258.0576841386392
1.368750	21641220.427571841	9843.7056478435297
1.375000	22266188.734830327	10472.709178266512
1.381250	22888663.677288547	11129.658444761972
1.387500	23506933.147834901	11801.247538114912
1.393750	24119494.839485385	12815.971507523976
1.400000	24723991.564037852	13144.225877630855
1.406250	25387762.091753338	14442.654410323683
1.412500	26024281.36541041	14695.099217247294
1.418750	26649544.310739215	14977.852413564744
1.425000	27262751.749311995	15764.401472408696
1.431250	27860540.645874254	15618.917725983501
1.437500	28443503.603557877	15968.798863338641
1.443750	29009978.356499821	16345.185905412982
1.450000	29557664.77031685	16704.846039140124
1.456250	30086639.2468176	16732.021250583966
1.462500	30594324.392738879	17458.761649329783
1.468750	31097889.546439093	17967.247093079917
1.475000	31618327.712018926	18023.948151866029
1.481250	32115287.292112492	18105.342772528205
1.487500	32587875.546603918	18205.279242381985
1.493750	33035291.519822259	18318.474490421078
1.500000	33456769.968397342	18440.453496178878
1.506250	33851616.551844038	18567.490528319864
1.512500	34219197.657508351	18696.532569212159
1.518750	34558932.243141927	18825.119075299306
1.525000	34870316.694442824	18951.316061039244
1.531250	35152884.90677879	19073.629799144204
1.537500	35433712.72367952	17978.528200498818
1.543750	35715107.21541141	18313.406726732439
1.550000	35965871.803290144	18643.600816979364
1.556250	36185997.886747912	18987.944839144238
1.562500	36375274.877500877	19295.985027381095
1.568750	36533945.573586687	19621.166500727686
1.575000	36662058.53093873	19947.585249434895
1.581250	36759783.569759555	20276.553849123076
1.587500	36827351.064419687	20609.278093009303
1.593750	36865038.332636185	20946.799035318498
1.600000	36873174.871821195	21290.001673267448
1.606250	36912854.230715424	17268.710588422073
1.612500	36915290.022236921	17445.665190924632
1.618750	36887284.604666777	17639.884366155686
1.625000	36829230.519940965	18182.010604083665
1.631250	36742564.293057472	17815.353034075873
1.637500	36627817.211738661	18002.652390472016
1.643750	36484954.49081073	18483.566557520753
1.650000	36315257.413084626	19232.140165649453
1.656250	36119910.215375796	18545.980050517413
1.662500	35900346.854372814	19207.568526243638
1.668750	35669130.759612322	26953.351005292938
1.675000	35446848.125929914	26869.331611138216
1.681250	35199405.367089331	26611.034561434379
1.687500	34927580.615188435	26417.715662453262
1.693750	34632622.968011089	26210.79535358393
1.700000	34315682.028224431	25991.014258733783
1.706250	33977923.758147508	25759.005734545382
1.712500	33620481.481565163	25518.159989334556
1.718750	33244580.8911664	25260.255657723399
1.725000	32851330.440265574	24994.250887297614
1.731250	32441903.729558133	24717.497109719796
1.737500	32045143.573258966	33070.302301568867
1.743750	31639512.448711473	32948.156513695409
1.750000	31217788.184979122	32777.472343422531
1.756250	30780801.173050858	32647.578946646092
1.762500	30330255.739589918	32469.63970492654
1.768750	29867253.081553768	32273.56391139888
1.775000	29392993.721162211	32059.549566003614
1.781250	28908676.788449138	31827.802807417243
1.787500	28415203.177583348	31321.500775581633
1.793750	27914484.552120578	31311.958898610457
1.800000	27406841.566837352	31028.330160999478
1.806250	26915527.407334872	13035.295134888969
1.812500	26419438.03069954	12844.648981355977
1.818750	25916024.927547831	11895.223794366571
1.825000	25407548.093328632	12833.126778118018
1.831250	24894919.834642075	13277.409477220417
1.837500	24378563.488664784	12928.994603285028
1.843750	23859829.410746027	12285.0777562067
1.850000	23339257.078302324	11730.414364322029
1.856250	22818651.859997816	12125.681301060262
1.862500	22298082.382459633	12662.62031287529
1.868750	21785860.224237647	18149.490989304515
1.875000	21282011.524427243	17760.117072625671
1.881250	20779505.692640536	17011.810771261193
1.887500	20277201.986007985	16437.571750564333
1.893750	19776347.447042964	16008.204627887366
1.900000	19278077.087966029	14893.744792494223
1.906250	18783080.818796903	14689.250208087431
1.912500	18291431.923045989	14084.419506575186
1.918750	17804420.726140995	13509.991124484684
1.925000	17322102.565244336	12922.002774421046
1.931250	16845116.581029125	12339.382124818587
1.937500	16386217.502835691	6055.6091648478259
1.943750	15929390.235262776	6202.0251860530534
1.950000	15477516.705546457	6427.8366375068072
1.956250	15031019.600381991	6679.9636798035081
1.962500	14590314.676357349	6992.755796451278
1.968750	14155781.158808628	7334.1011200000112
1.975000	13727784.719060561	7720.6550054176278
1.981250	13306786.622280043	7942.4493993384731
1.987500	12892683.353792721	8648.283077519498
1.993750	12485748.170793179	9072.8095519834351
2.000000	12086445.078390649	9569.6987020450197
2.006250	11702123.735883923	8891.7878077925998
2.012500	11323493.055038027	8520.6497272647048
2.018750	10951727.335618485	8177.3770945663673
2.025000	10587227.938723823	7878.2836617420598
2.031250	10230099.090830315	7588.9298406395437
2.037500	9880088.0827132501	7185.7330331288204
2.043750	9537414.7230357584	7162.1653069452896
2.050000	9203008.2445662022	7085.788178584603
2.056250	8875381.6137179993	6954.3063533244867
2.062500	8555498.1034772024	6648.9866402508005
2.068750	8242203.3699966045	8418.1235929999948
2.075000	7942020.4330658782	8256.0894568565709
2.081250	7649118.0003559198	8067.1110911838832
2.087500	7362597.498967886	7982.6092036776436
2.093750	7083403.3872124702	7870.5707688353541
2.100000	6811221.9028193783	7774.1973257188038
2.106250	6546117.2907478344	7829.9369029889576
2.112500	6287810.9351236243	7624.6510209153585
2.118750	6036587.91639408	7737.2868286285566
2.125000	5792079.7022544472	7524.3988979957039
2.131250	5554446.6651171241	7489.0470575347999
2.137500	5326637.1278893538	5490.7595665338058
2.143750	5105898.0334360655	5274.9386018705509
2.150000	4891371.7908306243	5079.1734542411195
2.156250	4683073.4328583935	4893.9295876280075
2.162500	4480897.1296973992	4744.5002820189748
2.168750	4284866.0663274173	4603.2942178922067
2.175000	4094929.8662607735	4477.6336343688154
2.181250	3911024.1053691274	4365.8799233528898
2.187500	3733106.8993541775	4266.2962898189116
2.193750	3561108.7625621902	4177.0679578023492
2.200000	3394954.9219078347	4096.3685762065543
2.206250	3235627.2104684403	6477.4719171201359
2.212500	3084029.9993744129	6227.4375635132865
2.218750	2937832.5321234185	6031.6226569549099
2.225000	2796943.701391831	5772.3301085662652
2.231250	2661484.6269953791	5623.009349552196
2.237500	2531301.6546320333	5436.3205433152007
2.243750	2406487.7934747338	5244.5918124934242
2.250000	2286907.6024846137	5058.8436797708709
2.256250	2172525.3386023492	4937.4289107069717
2.262500	2063432.1484828354	4710.4292603953791
2.268750	1963229.7598077324	2831.0706466325842
2.275000	1867066.3067519746	2631.4309404330384
2.281250	1775676.6856010887	2459.9647326022687
2.287500	1689057.1585229184	2313.3721070052043
2.293750	1607202.7439919135	2186.256055437515
2.300000	1530109.1675165608	2075.6773647421514
2.306250	1457756.578743634	1977.1268511970159
2.312500	1390129.4031891518	1886.982067516381
2.318750	1327196.689114914	1802.293918190416
2.325000	1268920.5524282807	1720.9985351034804
2.331250	1215261.576310005	1642.0953444806892
2.337500	1168842.0264232787	1053.9687448566647
2.343750	1126569.9978782299	982.47010605176047
2.350000	1088775.3048020438	949.81938332046661
2.356250	1055067.8734205184	908.46861252730844
2.362500	1025624.1343040299	915.29879511063018
2.368750	1000286.1437393569	1018.5573357598627
2.375000	979191.31870150729	994.02140539015124
2.381250	962081.77130794642	998.33987528570435
2.387500	949041.56376390497	1219.8001856015353
2.393750	940000.73724171706	1341.626854005731
2.400000	934777.8224722778	1509.6286275021507
2.406250	935611.00845034572	1200.9495423964411
2.412500	940234.22158856539	1156.1700280424222
2.418750	948490.64120890107	930.34834625170208
2.425000	960238.75760771637	983.13223167786714
2.431250	975263.60325904505	863.70838233305085
2.437500	993676.32669281249	886.76109525104482
2.443750	1015345.5266328386	930.67103243936344
2.450000	1039852.8071682027	967.12671469322515
2.456250	1067522.4185545971	1051.5620697302031
2.462500	1097964.6096831742	1180.0928209692654
2.468750	1132994.2223297399	1735.1166659671446
2.475000	1171740.6374330218	1789.4560115502723
2.481250	1212942.3237608937	1836.592241328914
2.487500	1256426.0520323894	1894.3386377715626
2.493750	1302198.7323902114	1910.131266805525
2.500000	1349977.6023126284	1937.6211700688673
2.506250	1399658.6047122343	1960.0362037344355
2.512500	1451083.3608450436	1978.4721525986977
2.518750	1504078.6026227893	1994.2070040185793
2.525000	1558470.2799286025	2008.6773525103697
2.531250	1614067.6386090841	2023.4350013099458
2.537500	1673761.6705921229	1738.351553036847
2.543750	1735447.9562480946	1715.1315547872405
2.550000	1797975.9690068029	1717.0629227984145
2.556250	1861217.3507047773	1699.2820462234192
2.562500	1924926.8288692087	1737.9706903439376
2.568750	1989066.3078118917	1787.0128074757324
