#List of files for average calculation
#C:\D+_tests\Symmetry\GPU\WH\Scripted_Symmetry_Implicit_No_Charges_With_Hydration_VEGAS\Scripted_Symmetry_Implicit_No_Charges_With_Hydration_VEGAS_1
#C:\D+_tests\Symmetry\GPU\WH\Scripted_Symmetry_Implicit_No_Charges_With_Hydration_VEGAS\Scripted_Symmetry_Implicit_No_Charges_With_Hydration_VEGAS_2
#C:\D+_tests\Symmetry\GPU\WH\Scripted_Symmetry_Implicit_No_Charges_With_Hydration_VEGAS\Scripted_Symmetry_Implicit_No_Charges_With_Hydration_VEGAS_3
#C:\D+_tests\Symmetry\GPU\WH\Scripted_Symmetry_Implicit_No_Charges_With_Hydration_VEGAS\Scripted_Symmetry_Implicit_No_Charges_With_Hydration_VEGAS_4
#C:\D+_tests\Symmetry\GPU\WH\Scripted_Symmetry_Implicit_No_Charges_With_Hydration_VEGAS\Scripted_Symmetry_Implicit_No_Charges_With_Hydration_VEGAS_5
#C:\D+_tests\Symmetry\GPU\WH\Scripted_Symmetry_Implicit_No_Charges_With_Hydration_VEGAS\Scripted_Symmetry_Implicit_No_Charges_With_Hydration_VEGAS_6
#C:\D+_tests\Symmetry\GPU\WH\Scripted_Symmetry_Implicit_No_Charges_With_Hydration_VEGAS\Scripted_Symmetry_Implicit_No_Charges_With_Hydration_VEGAS_7
#C:\D+_tests\Symmetry\GPU\WH\Scripted_Symmetry_Implicit_No_Charges_With_Hydration_VEGAS\Scripted_Symmetry_Implicit_No_Charges_With_Hydration_VEGAS_8
#C:\D+_tests\Symmetry\GPU\WH\Scripted_Symmetry_Implicit_No_Charges_With_Hydration_VEGAS\Scripted_Symmetry_Implicit_No_Charges_With_Hydration_VEGAS_9
#C:\D+_tests\Symmetry\GPU\WH\Scripted_Symmetry_Implicit_No_Charges_With_Hydration_VEGAS\Scripted_Symmetry_Implicit_No_Charges_With_Hydration_VEGAS_10
#Average Chi square (Sigma units): 1.7844218635197
#Sigma Chi square: 0.42760478462109
#Calculation was done on GPU
q [nm^-1]	Intensity [A.U]	Sigma [A.U]
0.000000	62833252731.897842	0
0.006250	62857414481.907791	571028.09016885236
0.012500	62745924898.874802	627550.95709239924
0.018750	62502881169.256424	1003131.5516001434
0.025000	62131815836.211777	227095.18933439994
0.031250	61635814005.69603	1891266.0396594971
0.037500	61022079202.753738	2361203.5612239046
0.043750	60293284117.059448	3763582.10240043
0.050000	59457899632.108704	3663447.8017162951
0.056250	58520250729.87355	3649537.1997023891
0.062500	57488884084.355507	1362735.2446400067
0.068750	56421367639.216026	787830.3329541682
0.075000	55363016153.183334	7272365.9846071629
0.081250	54212907208.554527	11809070.944626817
0.087500	52979187063.706161	12540079.475236058
0.093750	51684256591.683701	5865039.4922841033
0.100000	50323524260.650826	1634085.1679482411
0.106250	48907077188.007736	3941888.4544653939
0.112500	47447638069.268707	7171868.6441078624
0.118750	45957970152.649246	5375720.2439855803
0.125000	44443165554.61647	2548729.2437264496
0.131250	42909667049.762253	2778630.7633896628
0.137500	41416517466.766396	3366237.1382225775
0.143750	39917394441.804184	11109457.601196831
0.150000	38410201516.296867	8968042.2004546002
0.156250	36895819401.130692	3848141.7354507316
0.162500	35380695872.588455	3983406.2148533952
0.168750	33871048333.219841	11887508.882765181
0.175000	32391029113.928814	4204951.5852160463
0.181250	30925824403.878937	7075657.4624616252
0.187500	29500939132.557789	7272786.0097766705
0.193750	28112823163.019249	8427653.9259361494
0.200000	26767649829.872345	4440580.4065378644
0.206250	25484610236.19429	4175006.4055757057
0.212500	24232835264.307529	7602670.1830258435
0.218750	23021603638.80854	3684963.2930263528
0.225000	21851048649.53096	4371508.2867460651
0.231250	20723011871.010624	5339008.6580580259
0.237500	19640959818.522747	3611159.4179346166
0.243750	18605114679.685589	4964953.2741675908
0.250000	17617176977.059895	3217575.7714266335
0.256250	16679778043.377636	5341350.1182323126
0.262500	15791296417.49229	4007727.6806641831
0.268750	14950212239.714123	4928544.7320742328
0.275000	14151235921.721252	4797247.3006935548
0.281250	13391797086.554676	4641784.6785356086
0.287500	12673051213.462513	4559742.6644031946
0.293750	11992024891.641018	4450285.604586957
0.300000	11348142997.014141	4344116.9626568621
0.306250	10739981849.916422	4540914.4795747884
0.312500	10166034534.046175	4132501.8319525067
0.318750	9624524837.0894394	4023091.4477362586
0.325000	9112629867.1474171	4180661.6400810494
0.331250	8631495858.6300297	3791287.585007092
0.337500	8177056217.4065151	4762159.8581300611
0.343750	7745568348.9768238	4555841.119249058
0.350000	7335884791.6396894	3679968.7712326022
0.356250	6947348867.2950134	4048711.8697102093
0.362500	6577647808.7892904	3821742.1354372506
0.368750	6225361528.4077854	3583920.691773158
0.375000	5890663475.4536285	3459887.9455557493
0.381250	5570929130.1859989	3913337.4704759824
0.387500	5266874253.3351555	2987819.87637601
0.393750	4975748927.5066023	3055293.0042791148
0.400000	4698002159.6380529	2960058.5874424744
0.406250	4434388296.0744543	2304051.5484115775
0.412500	4181092076.7954125	2140094.7107162103
0.418750	3937852312.1135569	1858581.6300250851
0.425000	3703965704.2308455	1907723.9433137972
0.431250	3479625059.5935278	1787997.4153730832
0.437500	3264604344.863626	1596219.0237994513
0.443750	3059130135.3012886	1404365.8813268177
0.450000	2863021796.0188451	1629174.4790824507
0.456250	2676116536.6075578	1625761.7316854361
0.462500	2498791136.2665849	1525804.9629964337
0.468750	2331612202.9803305	1407541.4463821054
0.475000	2172183573.4368043	1357280.7352687744
0.481250	2020919877.6614845	1285674.3995148232
0.487500	1876704142.3589013	1573955.2213963626
0.493750	1741089076.7697182	1527155.8786473516
0.500000	1612673126.6286557	1470346.1510192861
0.506250	1492784818.8094296	1365783.9228861749
0.512500	1380554086.2374582	1068753.8469777207
0.518750	1276202194.7010939	1101999.3752079955
0.525000	1179475270.7197328	998272.06119583477
0.531250	1090486895.6973469	1001934.8586186799
0.537500	1008433854.4370524	947238.47188830108
0.543750	932378801.03774858	971925.30602642079
0.550000	862419098.26177287	862626.98252163385
0.556250	798323901.12104821	949557.83236499759
0.562500	739843033.53752589	830163.27583117667
0.568750	686733558.90447021	810387.3529265828
0.575000	638553610.9798795	807495.19766776904
0.581250	595061820.21381831	795504.52768946043
0.587500	555827540.37866116	739347.71379991854
0.593750	520493075.62130612	731552.46846883663
0.600000	488615000.81197435	728349.03570671286
0.606250	460330595.35936719	368931.54547974584
0.612500	434699633.56495583	296441.51269013213
0.618750	411433720.29329801	283739.64122564462
0.625000	390433435.38007843	221750.57482292238
0.631250	371159286.60772789	189714.15417109238
0.637500	353510282.56622612	202231.80610197215
0.643750	337204065.85254687	194465.74170572835
0.650000	322083610.67885971	195262.23776679585
0.656250	307874126.34837931	207412.86928538306
0.662500	294445241.2289561	204048.96246107717
0.668750	281736092.96443558	319493.56180709199
0.675000	270566909.18357599	308127.75110543345
0.681250	259626106.68708706	297537.61007382203
0.687500	248892087.14286786	292219.65083220182
0.693750	238348677.92125788	290036.38557886798
0.700000	227900367.42648023	306523.48415919149
0.706250	217785797.45779109	279531.71775913506
0.712500	207864515.37805846	267444.15527925111
0.718750	198233361.41409102	294834.36371176637
0.725000	188859750.3044011	294514.37783799507
0.731250	179851365.04663226	260199.70966535638
0.737500	171939620.34917903	287475.41332772619
0.743750	164396892.94882378	269304.84471312788
0.750000	156994247.86291933	292435.54480604123
0.756250	149899965.57322264	241178.75083582985
0.762500	143063608.62276757	234146.41438547353
0.768750	136666693.14144084	228061.2581768505
0.775000	130647809.49662027	202342.29668656574
0.781250	125090055.1937511	180955.02470694695
0.787500	120051903.71340963	160134.49443785989
0.793750	115441380.94120197	133511.95853028458
0.800000	111327413.54680447	126385.34860581359
0.806250	108192789.09940319	171295.52693733605
0.812500	105394203.16159582	166231.24096927125
0.818750	102859508.15093575	162484.07840620456
0.825000	100632555.97744943	159865.31252738956
0.831250	98713056.573559135	161860.73905477734
0.837500	96954962.676560014	154474.38984214078
0.843750	95454009.709904313	157528.78026220316
0.850000	94094348.733691171	147447.41989097712
0.856250	92873699.986529157	136551.60793230674
0.862500	91672993.332005903	142151.07633087068
0.868750	90807902.495525092	67789.979108827523
0.875000	90163498.846611828	74049.993604489791
0.881250	89398057.613720819	74179.997912343213
0.887500	88507443.753881693	76219.829295418735
0.893750	87449309.432579026	81945.719107573794
0.900000	86240751.804002136	88924.432244343858
0.906250	84862220.153596222	98266.952965880482
0.912500	83307258.430474788	107214.23688189649
0.918750	81569077.889009267	116037.40745682306
0.925000	79646125.125956327	124339.95387760624
0.931250	77540199.499741197	132523.66726463847
0.937500	75639660.852316648	86166.473373433604
0.943750	73640320.806029022	82170.738859973295
0.950000	71414733.265046746	79467.144207353631
0.956250	69003697.102895886	78398.887677297753
0.962500	66452979.762425326	77452.395589040651
0.968750	63808464.73140613	82702.784626143533
0.975000	61116498.357746497	81509.760323417722
0.981250	58407572.036351487	84294.181693895938
0.987500	55742632.707803451	86460.776946172249
0.993750	53130455.657240167	87524.559768990614
1.000000	50622854.106056735	90225.351752213784
1.006250	48456814.71513097	115542.84527253352
1.012500	46354008.861490771	115399.49815811022
1.018750	44335138.290882476	115362.7776488596
1.025000	42438987.14987237	113288.20567709531
1.031250	40695131.387033179	102804.53951366004
1.037500	39128324.28987477	102856.9124254315
1.043750	37753863.291875601	93667.993355169427
1.050000	36574366.012352049	87842.628666667879
1.056250	35596523.124546543	80944.465157840765
1.062500	34806169.822175935	76203.92143542564
1.068750	34200735.192986727	59663.85362348747
1.075000	33878387.182091571	59668.30903602227
1.081250	33688912.283147961	60296.523780426178
1.087500	33624102.822513193	61163.366948821727
1.093750	33668883.183137022	63141.490243176209
1.100000	33807369.287084922	65862.557896392333
1.106250	34019581.457751833	68077.700308311891
1.112500	34283225.799439624	71476.245347530843
1.118750	34570339.783407971	74294.354896298799
1.125000	34856554.104692101	76130.048060109082
1.131250	35101912.517789528	78913.634542766085
1.137500	35452195.863383181	61304.711510054462
1.143750	35783336.746772856	60626.533035538647
1.150000	36031474.019217119	59733.059540397015
1.156250	36185406.41367659	58336.873146443111
1.162500	36234882.087387323	57218.491843981443
1.168750	36173045.923764914	55591.329618689408
1.175000	35993834.29527735	53688.942244581005
1.181250	35692949.117005847	51682.900080323903
1.187500	35267967.142998569	49461.456076179667
1.193750	34718486.621668287	47107.174672917594
1.200000	34044405.362326398	44782.629951553048
1.206250	33460785.42941802	68050.72941510001
1.212500	32740997.651490342	66331.314158043111
1.218750	31898924.210056406	64480.256222866963
1.225000	30950371.352157224	57095.989509128012
1.231250	29918777.306306761	62746.602702057215
1.237500	28825268.384482063	59364.56472218717
1.243750	27681696.013338715	57780.117221517256
1.250000	26509060.194658618	56248.271464808189
1.256250	25321644.585708432	57481.48429033524
1.262500	24141487.984596927	53289.651321343546
1.268750	23019434.241097342	45325.885479594835
1.275000	21970783.905129455	43348.649883351318
1.281250	20928495.656385802	41722.667570930607
1.287500	19911035.566320814	40433.910688450022
1.293750	18934057.378086887	39732.445752251748
1.300000	18012059.77028887	38823.165915228361
1.306250	17154070.370748438	38513.766641167786
1.312500	16367562.551915612	38571.916614243324
1.318750	15656121.383595681	39115.84143374447
1.325000	15020814.881068099	39934.872987676456
1.331250	14458413.366574619	41274.887282544609
1.337500	14002064.833175126	28301.094464898375
1.343750	13626333.838924641	27881.504923380387
1.350000	13310662.773971858	27679.742338496741
1.356250	13053328.336626267	27702.97364589764
1.362500	12851697.913984183	29817.926954255716
1.368750	12697842.570020646	28381.017575548205
1.375000	12587517.381029617	28977.730350328377
1.381250	12511426.970036006	29687.182419778921
1.387500	12459843.07316518	30454.712589621729
1.393750	12421944.588617129	31221.537468553473
1.400000	12386082.975561382	31927.840393703114
1.406250	12373589.299646148	37995.086546822931
1.412500	12400858.516231462	36412.301461191382
1.418750	12417659.476803061	34997.814539832274
1.425000	12421329.133827748	33835.048004608594
1.431250	12407186.941098278	32779.038655423115
1.437500	12374362.481550582	32005.130668285681
1.443750	12320100.183122288	31493.07588737028
1.450000	12241630.843490634	31114.802829643984
1.456250	12137633.427402746	31098.216790373517
1.462500	12006358.001178784	30937.978462779065
1.468750	11871739.032951623	24560.731828173502
1.475000	11760174.255258581	23511.99769477273
1.481250	11616070.132996494	22585.529010186838
1.487500	11445300.683251709	21798.48661991056
1.493750	11253854.068515599	21165.60304170816
1.500000	11047632.269639619	20697.846441508922
1.506250	10832247.716418741	20400.934602024689
1.512500	10612864.848155417	20274.248670942208
1.518750	10394072.940013988	20310.349571422899
1.525000	10179237.447969016	20450.434602210447
1.531250	9973099.7106224988	20809.531489403049
1.537500	9827002.4397121724	23739.900894355076
1.543750	9686357.4592598155	24143.974753426039
1.550000	9551388.9848687071	24514.749145637037
1.556250	9427552.2671486698	24841.01508749709
1.562500	9319386.8870275207	25114.028697447618
1.568750	9230403.7543293517	25327.970561112317
1.575000	9162595.4385535941	25401.197958851073
1.581250	9118521.6713094153	25570.822740896867
1.587500	9097067.4344671071	25603.201755934129
1.593750	9097720.7773706317	25582.720985622174
1.600000	9118517.4280050732	25516.55080172624
1.606250	9174816.113048587	24963.165730392215
1.612500	9267154.1924209036	25155.419783462738
1.618750	9372574.8073284291	25450.73400501088
1.625000	9489772.6531538386	25230.012029481011
1.631250	9617865.2189688478	25559.027433141371
1.637500	9753900.662519278	25668.795440260088
1.643750	9895828.8786647394	25769.581266807407
1.650000	10040773.681420352	25834.007806659953
1.656250	10185403.708119808	25761.576123051262
1.662500	10326428.687665839	25828.893483456442
1.668750	10504255.125153491	36259.69495397721
1.675000	10674395.672302041	36682.22812520618
1.681250	10833741.822597882	36970.295013791241
1.687500	10981484.020979458	37122.622922461473
1.693750	11116963.500133734	37141.418290646354
1.700000	11239628.540373275	37031.667222384684
1.706250	11349001.441652287	36800.470226126228
1.712500	11444622.706839988	36443.392262565816
1.718750	11526235.905929323	36008.716360418053
1.725000	11593372.094670333	35467.117057341362
1.731250	11645773.888522981	34840.880381346353
1.737500	11716911.387152473	22946.948337070204
1.743750	11787780.838711577	22906.326498432612
1.750000	11843466.830526451	22885.704606581083
1.756250	11885869.648501534	22877.595237570473
1.762500	11916831.678159911	22873.788340569889
1.768750	11938076.937681261	22859.336710085448
1.775000	11951131.618094873	22822.499965263989
1.781250	11957282.770990852	22752.744453212294
1.787500	11957545.302263744	22643.194960959099
1.793750	11952643.654580288	22491.895670660451
1.800000	11943009.189825628	22302.611658727736
1.806250	11975437.123518318	13691.48082790741
1.812500	11995825.736469161	13678.337026784904
1.818750	12013271.330984607	13856.463238118477
1.825000	12029439.206251372	14128.142753278733
1.831250	12044988.701189997	14057.541424658993
1.837500	12061539.875362303	14210.41526890464
1.843750	12079274.764597401	14423.163392473971
1.850000	12098411.170417635	14823.477707635986
1.856250	12118511.593208186	15335.038836424625
1.862500	12138669.509198284	16135.67730842226
1.868750	12162377.658883851	27357.45682260962
1.875000	12217942.35095486	28592.746211204834
1.881250	12273392.85500649	29849.960314939082
1.887500	12329091.837109802	31118.542103902844
1.893750	12385144.1289392	32387.654582886746
1.900000	12441387.494433034	33646.452281758851
1.906250	12497381.990287218	34884.097349773416
1.912500	12552419.313442174	36090.001175039637
1.918750	12605535.891832573	37253.921437007026
1.925000	12655535.552788679	38366.046968720504
1.931250	12701026.027951235	39417.165543065203
1.937500	12764729.335350774	24896.49609320685
1.943750	12839676.939128684	25749.756644564121
1.950000	12911059.07090443	26580.801458450791
1.956250	12979601.007134432	27390.797142804357
1.962500	13045352.216767959	28263.213423153244
1.968750	13108569.108571772	29083.95429844195
1.975000	13169072.616786519	29896.632478024148
1.981250	13226462.805680823	30701.419802433444
1.987500	13280081.506375071	31498.124040584444
1.993750	13329022.789630994	32286.251326578371
2.000000	13372141.677643104	33065.009214068035
2.006250	13455110.111843044	34789.193113351685
2.012500	13529780.800459865	34472.344234869619
2.018750	13600336.049194604	34135.553982705242
2.025000	13667119.351831699	33839.811436418087
2.031250	13730375.530488256	33458.236937188012
2.037500	13789846.822845578	33186.497284116216
2.043750	13844871.091397068	32923.778751466285
2.050000	13894593.51425823	32691.33565219893
2.056250	13937777.426948458	32484.639839914962
2.062500	13972864.247425642	32296.190429960068
2.068750	14025071.404868484	36730.9814454234
2.075000	14088934.440132817	38501.628388943667
2.081250	14144038.66015349	40331.229343710635
2.087500	14190610.77778923	42214.734196206977
2.093750	14228611.553518053	44144.887242619305
2.100000	14257736.04607912	46112.59481125739
2.106250	14277402.497835394	48106.621789937235
2.112500	14286810.230428169	50044.893671429789
2.118750	14284686.283643926	52117.13706340576
2.125000	14269949.558325138	53975.119770932462
2.131250	14240683.368089225	56042.713540541175
2.137500	14195026.668511907	48384.416254354881
2.143750	14184242.37891376	48383.985112232032
2.150000	14158513.414156312	48368.911572690835
2.156250	14118368.588103872	48345.426363305487
2.162500	14064195.9635118	48318.41067026322
2.168750	13996227.893632267	48291.169933973935
2.175000	13914542.313273361	48265.264647694465
2.181250	13819040.378198739	48240.389504135412
2.187500	13709475.730014894	48214.332113329139
2.193750	13585438.335577134	48183.530046445136
2.200000	13446390.699329322	48140.431761404448
2.206250	13376358.13592235	46145.040058073842
2.212500	13253652.952835565	45314.267219318783
2.218750	13116149.658604335	44563.221518411025
2.225000	12964936.333249694	43541.232421920089
2.231250	12803711.179262374	42822.374450992545
2.237500	12630887.893590858	42114.664475137302
2.243750	12448784.93500584	41369.848031181711
2.250000	12257674.322738532	40703.404424909349
2.256250	12058262.598553501	40041.370930747973
2.262500	11850630.906700231	39565.911948533714
2.268750	11629700.05476426	29310.728008169284
2.275000	11446634.869309543	28937.730626696612
2.281250	11254123.346922776	28692.032834336398
2.287500	11053676.717341822	28667.192071420552
2.293750	10847404.160457684	28516.936740917939
2.300000	10636139.312751139	28747.087202173323
2.306250	10420843.012839034	29009.586364805789
2.312500	10202318.378838666	29371.374242972593
2.318750	9980982.1951685529	29812.394447496597
2.325000	9756649.9668013044	30059.56068959523
2.331250	9530203.1052866988	30834.742446817316
2.337500	9311984.6807344873	30138.503606137579
2.343750	9109029.8236265611	29138.38537406272
2.350000	8901553.7612404414	28187.810064281573
2.356250	8690667.1948827635	27224.547820897489
2.362500	8477399.1432689335	26287.876752103191
2.368750	8262526.0602352442	25388.933752436908
2.375000	8046652.6673517702	24536.294952120556
2.381250	7830154.970635863	23735.391516900509
2.387500	7613213.1594265942	22988.4970978657
2.393750	7395748.6931040166	22190.704980976967
2.400000	7177889.9253026191	21651.361401572365
2.406250	6975171.8313898621	23176.638618114855
2.412500	6777348.4322482226	22046.21402010784
2.418750	6577350.6067674328	20942.185416863005
2.425000	6376299.3100772072	19826.598339637399
2.431250	6175091.3295156555	18943.504733558708
2.437500	5974722.8075268138	18011.353908578018
