#List of files for average calculation
#C:\Lea\runGPU\100nmRod_Scripted_MC\100nmRod_Scripted_MC_1
#C:\Lea\runGPU\100nmRod_Scripted_MC\100nmRod_Scripted_MC_2
#C:\Lea\runGPU\100nmRod_Scripted_MC\100nmRod_Scripted_MC_3
#C:\Lea\runGPU\100nmRod_Scripted_MC\100nmRod_Scripted_MC_4
#C:\Lea\runGPU\100nmRod_Scripted_MC\100nmRod_Scripted_MC_5
#C:\Lea\runGPU\100nmRod_Scripted_MC\100nmRod_Scripted_MC_6
#C:\Lea\runGPU\100nmRod_Scripted_MC\100nmRod_Scripted_MC_7
#C:\Lea\runGPU\100nmRod_Scripted_MC\100nmRod_Scripted_MC_8
#C:\Lea\runGPU\100nmRod_Scripted_MC\100nmRod_Scripted_MC_9
#C:\Lea\runGPU\100nmRod_Scripted_MC\100nmRod_Scripted_MC_10
#Average Chi square (Sigma units): 1.3487554634396
#Sigma Chi square: 0.23940487898324
#Calculation was done on GPU
q [nm^-1]	Intensity [A.U]	Sigma [A.U]
0.000000	443046541.56490123	6.2828812205163231e-008
0.006250	439085120.32055819	6859.8055967023984
0.012500	424345660.16206789	20580.64365704605
0.018750	400993341.08587849	55731.425430351192
0.025000	371508678.28781092	109808.91273342491
0.031250	339118142.81656837	100344.06239259306
0.037500	307118828.6336242	142601.47149366993
0.043750	275118075.59464324	183985.64822696784
0.050000	245951952.30210161	218207.70587243626
0.056250	221094704.68302518	242236.85488336656
0.062500	200496502.14434308	166323.62418869263
0.068750	183017075.70190629	171994.35362508989
0.075000	168328912.76128095	174523.99691038547
0.081250	156206385.39259297	174605.94824812948
0.087500	146145922.06829873	172918.75975362901
0.093750	137785901.47017401	186922.03901979199
0.100000	130359124.76838148	183614.45916227842
0.106250	123366942.55621807	179989.00239956437
0.112500	116828157.22584502	176038.55304021755
0.118750	110773506.66070595	171836.27772839396
0.125000	105315858.5989227	160001.61952359375
0.131250	100300642.05971092	159894.31278552816
0.137500	95691767.439410567	159121.95964514546
0.143750	91591402.229151383	157769.01223471283
0.150000	87947638.144836754	156040.30692934405
0.156250	84768365.581124723	204628.31127739861
0.162500	81704690.298176497	209513.18378739219
0.168750	78785981.430609748	214241.09054821834
0.175000	76031179.142120659	218538.53873474334
0.181250	73413075.819332108	222132.11716506456
0.187500	70956527.014220327	110989.38417132061
0.193750	68607465.097319186	111356.47317582187
0.200000	66405958.183944568	111441.14117552375
0.206250	64387244.82496202	111259.88529134887
0.212500	62468987.839636981	102386.66825054027
0.218750	60771523.816366352	100316.24836907208
0.225000	59115597.789837219	98348.090138973072
0.231250	57532131.482441828	96558.357077523833
0.237500	56021114.390998825	95012.253804709297
0.243750	54645378.707817353	95541.754209240607
0.250000	53259517.9138394	94436.578826525365
0.256250	51901747.910391219	93326.099354887556
0.262500	50618365.206633076	92135.087277297993
0.268750	49416926.900104821	90800.406848679297
0.275000	48235885.898985974	91478.246351196445
0.281250	47170393.992899165	90682.059898758482
0.287500	46132656.584252723	90096.101625071838
0.293750	45138127.984226651	89587.700177248786
0.300000	44177936.459418453	89013.311705919361
0.306250	43365049.639317743	145238.95214441075
0.312500	42458950.712242708	144844.92536759507
0.318750	41574015.972741574	144300.54798199152
0.325000	40732495.908347912	143644.21105222218
0.331250	39930591.974350668	142971.19800885505
0.337500	39112067.840833209	113799.28707291288
0.343750	38380959.163446233	112572.51491119669
0.350000	37671047.839337744	111265.04130425668
0.356250	36988227.715904608	109863.45388750768
0.362500	36320142.962226316	108387.36725558968
0.368750	35695601.853625178	112848.29735319009
0.375000	35056431.917421907	112694.35375555619
0.381250	34434361.841171309	112443.85424184066
0.387500	33838948.355028868	112118.52812379414
0.393750	33261631.968953185	111753.37253070981
0.400000	32705520.777285784	80381.841874004065
0.406250	32171035.468476404	79736.763326725079
0.412500	31653555.989376388	79075.714953405797
0.418750	31153087.628799058	78450.542251114981
0.425000	30655752.780153017	95202.788830161633
0.431250	30180786.534107845	94604.099933055797
0.437500	29704932.23037995	93922.710075680239
0.443750	29243021.293812662	93223.172107227161
0.450000	28797544.162221622	92572.311708657595
0.456250	28413747.563185431	51076.948960351983
0.462500	27998901.628457367	50805.162373652558
0.468750	27589683.222956069	50499.694483598061
0.475000	27193988.172897011	50180.432072938958
0.481250	26808450.937738292	49867.999122748719
0.487500	26402274.755309582	71828.211627905635
0.493750	26031344.898299448	71358.660810751433
0.500000	25663034.942393534	70845.013803266105
0.506250	25305648.038091026	70332.322559186985
0.512500	24957516.024998471	69862.382786706919
0.518750	24635714.078611888	96432.270617716145
0.525000	24306538.823727351	95675.974104305933
0.531250	23984062.439075541	94893.215921365467
0.537500	23672037.75855124	94085.534601653038
0.543750	23365003.268648721	93252.83223035236
0.550000	23052707.3596242	79888.540462072473
0.556250	22754437.170632925	79455.392469502505
0.562500	22460289.464391381	79048.910127115654
0.568750	22174325.936932955	78660.921288924161
0.575000	21892653.694743432	78281.747093463098
0.581250	21658033.973520987	40360.511986393911
0.587500	21388836.223878607	40400.162537821627
0.593750	21126500.343508825	40437.061135275151
0.600000	20871870.738312133	40471.554925689699
0.606250	20609128.939306356	71320.031032803119
0.612500	20365532.833537828	70667.290750256696
0.618750	20119474.456602074	69989.369829448871
0.625000	19878069.566486489	69304.381737515563
0.631250	19642399.631398275	68633.095217108304
0.637500	19420897.228438277	80881.055913566757
0.643750	19196282.589255724	80413.501801046645
0.650000	18972848.331548147	79925.014538168165
0.656250	18755780.728933401	79425.164536014418
0.662500	18543909.067483615	78924.377518003355
0.668750	18279623.512462642	44675.906890893159
0.675000	18074489.751250438	44501.401867702123
0.681250	17869467.974885095	44322.950195081867
0.687500	17668866.306308638	44146.346562646504
0.693750	17471675.51970876	43970.165883007037
0.700000	17274550.161747806	68112.218154215341
0.706250	17083593.037698723	67536.701011474885
0.712500	16895265.51611454	66975.240522661115
0.718750	16712468.702759657	66434.844752064164
0.725000	16532600.713314444	65916.384391021973
0.731250	16384539.655395985	66392.111205717767
0.737500	16208279.243711714	65804.494370721513
0.743750	16033609.624230048	65210.439561271363
0.750000	15862713.203706831	64619.7734441547
0.756250	15693213.914734373	64041.396420009514
0.762500	15504815.196402576	61007.806486132489
0.768750	15340313.980055604	60935.00842997984
0.775000	15179116.398222286	60885.546040766669
0.781250	15022355.920921594	60841.311760395824
0.787500	14866533.497786324	60782.96389195665
0.793750	14728738.818503221	82586.310540442762
0.800000	14576358.960284963	81936.795304199783
0.806250	14426284.091374522	81304.709832768029
0.812500	14279089.184460983	80713.113267699751
0.818750	14162693.888227096	56548.90230544284
0.825000	14019638.051977703	56140.234926480087
0.831250	13876307.543614063	55715.368114286764
0.837500	13736452.084382925	55295.758734118936
0.843750	13599855.381627539	54899.713611370527
0.850000	13443584.883395398	40234.994732181694
0.856250	13310903.238150507	39937.542804503413
0.862500	13178019.717028212	39638.075067069411
0.868750	13047627.991752002	39333.776479776199
0.875000	12919040.173292685	39023.81498726015
0.881250	12777956.747046659	32724.159254610793
0.887500	12651612.052172344	32705.704004128314
0.893750	12526200.114876039	32759.742004458276
0.900000	12404052.683438707	32833.646680784877
0.906250	12283933.37003612	32872.771583246467
0.912500	12170913.280993495	32143.755084717963
0.918750	12052891.587662037	32085.94044974837
0.925000	11935690.992576813	32017.34761514224
0.931250	11820804.962927829	31947.649778287825
0.937500	11706701.100712581	31885.613609940785
0.943750	11614586.128396016	36632.820681425408
0.950000	11501955.175663013	36289.47523943003
0.956250	11390984.564135384	35940.19431881592
0.962500	11282830.101491306	35594.56518928118
0.968750	11175539.201594681	35260.532971408633
0.975000	11086408.414178241	35613.891212329385
0.981250	10980984.874902681	35335.542122248706
0.987500	10877040.522386204	35081.736484052373
0.993750	10775007.336773289	34844.462814697254
1.000000	10672708.772132058	34610.204904410217
1.006250	10546371.419796268	39782.73403166057
1.012500	10445679.772788186	39590.433212197051
1.018750	10346991.482838828	39407.730861605734
1.025000	10250499.44756934	39228.457923027949
1.031250	10137675.008123323	55512.566203908478
1.037500	10043827.127323961	55199.395120345289
1.043750	9949768.4983617179	54867.038953608237
1.050000	9857447.2303016968	54537.047877525925
1.056250	9766443.622337006	54226.494920474208
1.062500	9680919.0477068461	37165.065663631831
1.068750	9590555.601719629	36873.420906063184
1.075000	9500418.9359493535	36551.441625806365
1.081250	9412342.6235676091	36218.80123509268
1.087500	9325735.9550884366	35893.030715180663
1.093750	9252961.9873646852	34599.766517778917
1.100000	9167476.0128517393	34385.34501484107
1.106250	9082591.3703490328	34145.263723695847
1.112500	8999424.3071530331	33902.658466019995
1.118750	8916910.7861231547	33678.469769157404
1.125000	8823401.6248852108	34285.956711220388
1.131250	8741475.4785661772	34157.465034372683
1.137500	8660424.3702576514	34024.30062584499
1.143750	8581243.0710638892	33888.421982200853
1.150000	8502757.6979915947	33751.408619420239
1.156250	8428665.0074741468	22073.760020727612
1.162500	8351200.1205744017	21973.681365816283
1.168750	8274812.1255359557	21885.585388120366
1.175000	8199908.3984182822	21799.848039482044
1.181250	8124967.34157003	21705.005036382579
1.187500	8062615.8083800403	24285.85535066708
1.193750	7987945.5050783828	23915.556037659178
1.200000	7914491.3667727485	23533.05464888717
1.206250	7842572.2227940066	23173.829340575619
1.212500	7763857.750845979	26706.532141647705
1.218750	7693535.2817378594	26555.127052123145
1.225000	7622982.724944748	26447.326618463219
1.231250	7553751.383229184	26357.404658990945
1.237500	7485654.2093753088	26257.90322437412
1.243750	7414903.9750333745	20409.511840919553
1.250000	7347282.5155482097	20283.882794162004
1.256250	7279590.3059715107	20169.771596676495
1.262500	7213255.8467100533	20063.61430973672
1.268750	7148005.2534567136	19960.001623379456
1.275000	7078486.8952839943	23519.015798948305
1.281250	7013809.1834005043	23313.364717431734
1.287500	6949531.9696464865	23120.559719386587
1.293750	6886613.8867900874	22935.592373895008
1.300000	6824378.034390511	22750.827671814404
1.306250	6763298.5931122722	24401.435571439259
1.312500	6701064.9899918679	24186.399454802293
1.318750	6639289.1259174347	23967.566351463851
1.325000	6578817.9162020572	23761.136694424316
1.331250	6518938.3134360258	23581.442589320493
1.337500	6466432.9506955622	37205.298114058787
1.343750	6406990.720468848	36957.949422836195
1.350000	6348349.1065224744	36723.563038205444
1.356250	6290950.8082789499	36487.365896026626
1.362500	6233760.9007319864	36233.601221638753
1.368750	6172285.0048643984	27680.253609879386
1.375000	6115160.2032546606	27509.864410626189
1.381250	6058821.8234898532	27337.115252873726
1.387500	6003605.4737325171	27167.848306614371
1.393750	5948473.8080858244	27007.839573290639
1.400000	5890873.8457211386	32063.952868137614
1.406250	5836351.9859264623	32000.643461598327
1.412500	5782858.9211667348	31956.914453488294
1.418750	5730365.9341481403	31892.466101021404
1.425000	5693479.7186351418	26095.520242112314
1.431250	5641142.2073019044	25984.231993313868
1.437500	5588629.9574255515	25897.936588339555
1.443750	5537059.0572688729	25817.37904057897
1.450000	5486317.6028418886	25722.806572348836
1.456250	5435654.6016236022	20491.47953268444
1.462500	5385293.9530899823	20319.625999164604
1.468750	5335152.5208298098	20123.98853021906
1.475000	5286095.6853440776	19925.565926317278
1.481250	5237744.0337327886	19743.927013162203
1.487500	5184048.5773025881	23497.912278365235
1.493750	5135642.3577853832	23318.82817078882
1.500000	5087487.3468318116	23133.632508040515
1.506250	5040287.4688620064	22945.999542474092
1.512500	4993596.234269416	22760.091614831694
1.518750	4948918.5210626069	25292.99129672227
1.525000	4902375.977657604	25119.498236205163
1.531250	4856409.0178272948	24951.382634324214
1.537500	4811472.7198615484	24783.590798905181
1.543750	4766877.8044342007	24610.557321870278
1.550000	4715782.3649424352	22225.340725385962
1.556250	4671104.9415386505	22152.490743272316
1.562500	4626955.2985365959	22088.855760337436
1.568750	4583662.58411144	22015.905306658529
1.575000	4540524.956370296	21915.995252280423
1.581250	4493422.7578102211	28582.840818569752
1.587500	4450534.1644108295	28381.212877202994
1.593750	4408424.66077404	28185.367175876356
1.600000	4367197.07612113	27987.267229226461
1.606250	4320070.5055522528	34016.961837434363
1.612500	4279152.3263667366	33694.451744394835
1.618750	4238035.4008315289	33373.150966503534
1.625000	4197611.3222562103	33055.547987514678
1.631250	4157863.4984510588	32742.667700894192
1.637500	4129694.911857239	15285.16152187507
1.643750	4090016.7983848103	15153.460873969823
1.650000	4050434.5691684475	15009.555948605463
1.656250	4011707.7861838317	14863.279547614513
1.662500	3973648.5186965698	14724.174410034691
1.668750	3927584.4126353897	26391.55095751768
1.675000	3889619.4852096923	26268.684030336422
1.681250	3851818.0134491981	26146.859740460455
1.687500	3814749.8401411683	26023.205400815015
1.693750	3778118.441841206	25895.331628353688
1.700000	3753941.3700752868	28236.353296984485
1.706250	3717205.7175652906	28039.495765473901
1.712500	3680874.7657058397	27849.437081512428
1.718750	3645379.1588336071	27661.911490504579
1.725000	3610267.2032459145	27471.877207384045
1.731250	3571136.422069726	20110.190473273626
1.737500	3535928.930337952	19927.543424532265
1.743750	3501122.1793837966	19743.330069675187
1.750000	3467004.0220387457	19560.888777830383
1.756250	3433070.8410928594	19382.68812305668
1.762500	3391320.3395407773	16918.366224381192
1.768750	3357339.8414562964	16794.926146953752
1.775000	3323918.3351774318	16672.33414606579
1.781250	3291245.2797854072	16550.403322670689
1.787500	3258721.5472445483	16428.999629647595
1.793750	3228099.8118449124	10521.373205148904
1.800000	3195708.6694336543	10421.372883846156
1.806250	3163865.7843262828	10317.822327012787
1.812500	3132585.7012159955	10212.666971104465
1.818750	3105934.5426579388	17551.481263749654
1.825000	3074614.6045869165	17415.530292660878
1.831250	3043299.7543598199	17276.735973829669
1.837500	3012638.0593281887	17137.302497151701
1.843750	2982563.9006090132	16999.499305463236
1.850000	2943644.490285364	10616.914831834787
1.856250	2913719.6924678609	10506.518364103296
1.862500	2883922.4815329066	10386.903009324917
1.868750	2854721.9822044331	10268.069200251794
1.875000	2825922.0375006879	10158.893017113214
1.881250	2803813.7027749876	22228.497760167735
1.887500	2774756.5488789747	22046.954496271617
1.893750	2745940.0121428543	21864.655788757143
1.900000	2717781.9175323062	21683.618997983089
1.906250	2690026.2269478366	21505.618720253409
1.912500	2665888.0480205077	11956.981204295867
1.918750	2638090.0834786906	11856.442282604672
1.925000	2610615.2871924266	11759.284989534419
1.931250	2583713.1891453192	11664.800172094454
1.937500	2557016.6830353611	11570.766935830812
1.943750	2529488.022332198	12029.341168947029
1.950000	2502650.548165496	11961.105118980506
1.956250	2476220.6288463352	11900.646422042248
1.962500	2450393.6693924805	11836.357415872937
1.968750	2424754.9984760461	11756.877190682351
1.975000	2398092.3147171452	12158.240365672871
1.981250	2372465.5492020673	12053.079278338591
1.987500	2347274.0768855298	11951.33500557166
1.993750	2322581.0828069495	11849.611241394621
2.000000	2297902.3293329449	11744.249581026623
2.006250	2274521.0757874982	9356.6665513486478
2.012500	2249791.3565135603	9290.5400539282473
2.018750	2225550.8163767899	9226.2353351465172
2.025000	2201809.7983266781	9161.0340309149869
2.031250	2179628.4161235439	15519.821078580411
2.037500	2155967.3094240194	15379.657528610318
2.043750	2132387.9156455067	15246.176914082476
2.050000	2109300.4796941793	15115.764218613753
2.056250	2086598.8133188884	14984.343197082482
2.062500	2062708.343645839	8857.3277295444659
2.068750	2039862.3284924831	8727.6680742670214
2.075000	2017150.9947985932	8587.1978661011981
2.081250	1994947.1053384542	8447.3688209464253
2.087500	1973113.3975470394	8318.9190398487135
2.093750	1949114.1146049635	11541.331073959
2.100000	1927257.9487085778	11454.667387902604
2.106250	1905644.5063410881	11376.118112035776
2.112500	1884520.8146412019	11295.927651012609
2.118750	1863647.4348987476	11204.545360043412
2.125000	1849145.3520714212	8708.3127969457728
2.131250	1828040.6207385536	8616.6051395068898
2.137500	1807211.9047725559	8526.5264977032421
2.143750	1786864.3940991345	8436.2374740576197
2.150000	1766735.66685659	8343.7993921051002
2.156250	1742946.2883687932	6382.8710542648751
2.162500	1722881.551371498	6297.1002086614135
2.168750	1703174.1527510732	6209.7044579130879
2.175000	1683905.180887429	6125.4056933698639
2.181250	1664718.0071776309	6048.3484400625121
2.187500	1642283.700305975	6546.7917221820844
2.193750	1623008.7492161156	6494.4700062118609
2.200000	1604089.2407989728	6442.9646721555737
2.206250	1585582.0227854059	6390.5366278452175
2.212500	1570992.9471083893	7987.4917831428556
2.218750	1552540.1645578835	7893.4252387966244
2.225000	1534143.921951192	7791.9198208735706
2.231250	1516154.3519602029	7688.8229182468267
2.237500	1498521.1087609113	7589.8631403812933
2.243750	1475580.6171649066	5054.6985121346115
2.250000	1457921.0664378619	5011.8049951278517
2.256250	1440337.8552528443	4977.0307450566415
2.262500	1423140.8154738736	4944.6876673985371
2.268750	1406256.5046532811	4908.9862356387321
2.275000	1392868.9130432953	3552.3017484554694
2.281250	1375914.3904472613	3506.5490130539083
2.287500	1359149.6915615958	3459.1670436592899
2.293750	1342797.9193443423	3412.5866063393623
2.300000	1326699.8781019002	3368.7533750117691
2.306250	1310739.6925753686	7315.8509108620601
2.312500	1294509.697487171	7233.2176834928023
2.318750	1278475.2335985485	7152.666456929298
2.325000	1262816.1397026209	7073.8802187671654
2.331250	1247355.9374560602	6995.8168939926218
2.337500	1232712.6833142338	3179.0997113548151
2.343750	1217223.625914054	3154.3017055659852
2.350000	1202021.445266946	3131.2559816811868
2.356250	1187199.1231304444	3107.7272261569406
2.362500	1172500.9116419202	3081.2056642577859
2.368750	1154607.256841498	6453.706288467356
2.375000	1139823.0268958744	6382.4615554630791
2.381250	1125305.6590719365	6313.2058964266753
2.387500	1111118.0759855281	6244.4513658096776
2.393750	1097007.2288263615	6174.5975151915636
2.400000	1084640.9823011314	6401.0949604319203
2.406250	1070535.1526738389	6336.4783401359837
2.412500	1056758.4833484215	6273.1477869282498
2.418750	1043303.5502483218	6208.6457484320945
2.425000	1029175.376339927	4410.4657793759898
2.431250	1015697.8529621747	4344.2676756946703
2.437500	1002265.1099096732	4277.2712212180722
2.443750	989129.96273383335	4211.2030842239355
2.450000	976256.70843003574	4147.2686203051653
2.456250	965522.47432673653	3164.0549647193993
2.462500	952581.5007940596	3127.2500446607432
2.468750	939773.99921005243	3093.6103753109946
2.475000	927305.32873678708	3060.9793551649573
2.481250	915083.06037699897	3026.9831877682873
2.487500	903163.25986870972	6895.0792492470819
2.493750	890860.22780753672	6806.3229122060429
2.500000	878700.53612870979	6717.5081324498069
2.506250	866837.56429474545	6629.5568337815312
2.512500	855152.53115347435	6543.2415715542747
2.518750	841801.15696376073	4526.3046069160591
2.525000	830056.87628879049	4468.1846098266442
2.531250	818523.11432136956	4412.15435720184
2.537500	807310.63057682256	4357.6596006007403
2.543750	796255.02402531705	4303.6130329984926
2.550000	783800.38430296571	5281.0576956449431
2.556250	772688.9648719111	5211.0619132504708
