#List of files for average calculation
#C:\D+_tests\Symmetry\GPU\WH\Manual_Symmetry_Implicit_No_Charges_With_Hydration_VEGAS_Amp\Manual_Symmetry_Implicit_No_Charges_With_Hydration_VEGAS_Amp_1
#C:\D+_tests\Symmetry\GPU\WH\Manual_Symmetry_Implicit_No_Charges_With_Hydration_VEGAS_Amp\Manual_Symmetry_Implicit_No_Charges_With_Hydration_VEGAS_Amp_2
#C:\D+_tests\Symmetry\GPU\WH\Manual_Symmetry_Implicit_No_Charges_With_Hydration_VEGAS_Amp\Manual_Symmetry_Implicit_No_Charges_With_Hydration_VEGAS_Amp_3
#C:\D+_tests\Symmetry\GPU\WH\Manual_Symmetry_Implicit_No_Charges_With_Hydration_VEGAS_Amp\Manual_Symmetry_Implicit_No_Charges_With_Hydration_VEGAS_Amp_4
#C:\D+_tests\Symmetry\GPU\WH\Manual_Symmetry_Implicit_No_Charges_With_Hydration_VEGAS_Amp\Manual_Symmetry_Implicit_No_Charges_With_Hydration_VEGAS_Amp_5
#C:\D+_tests\Symmetry\GPU\WH\Manual_Symmetry_Implicit_No_Charges_With_Hydration_VEGAS_Amp\Manual_Symmetry_Implicit_No_Charges_With_Hydration_VEGAS_Amp_6
#C:\D+_tests\Symmetry\GPU\WH\Manual_Symmetry_Implicit_No_Charges_With_Hydration_VEGAS_Amp\Manual_Symmetry_Implicit_No_Charges_With_Hydration_VEGAS_Amp_7
#C:\D+_tests\Symmetry\GPU\WH\Manual_Symmetry_Implicit_No_Charges_With_Hydration_VEGAS_Amp\Manual_Symmetry_Implicit_No_Charges_With_Hydration_VEGAS_Amp_8
#C:\D+_tests\Symmetry\GPU\WH\Manual_Symmetry_Implicit_No_Charges_With_Hydration_VEGAS_Amp\Manual_Symmetry_Implicit_No_Charges_With_Hydration_VEGAS_Amp_9
#C:\D+_tests\Symmetry\GPU\WH\Manual_Symmetry_Implicit_No_Charges_With_Hydration_VEGAS_Amp\Manual_Symmetry_Implicit_No_Charges_With_Hydration_VEGAS_Amp_10
#Average Chi square (Sigma units): 1.7044769558731
#Sigma Chi square: 0.29413004394456
#Calculation was done on GPU
q [nm^-1]	Intensity [A.U]	Sigma [A.U]
0.000000	62833252989.003906	5.0862630208333331e-006
0.006250	62857492046.542282	390347.45209401095
0.012500	62745997246.199074	633659.23501450894
0.018750	62502615836.205261	873814.88609597879
0.025000	62131211289.944839	1605086.383823961
0.031250	61635375155.809532	1892631.9630100005
0.037500	61022520454.375511	385149.76161107048
0.043750	60293778007.575096	3365843.2428146834
0.050000	59456454183.468811	6241872.1207556892
0.056250	58517390474.529343	7444666.367089157
0.062500	57488416262.421005	1289192.7439905419
0.068750	56421835411.45079	760423.75905516534
0.075000	55364146130.549759	5782807.4038542556
0.081250	54217214787.236656	5290564.5722418018
0.087500	52989089738.362839	1520678.3010603522
0.093750	51685924763.338516	5742256.830394363
0.100000	50320045254.510918	6591677.7999734934
0.106250	48908934914.450081	2476347.1495829779
0.112500	47445102797.448349	9262035.1991267856
0.118750	45957768731.96727	6802493.1205892703
0.125000	44443822557.796471	3463262.0892797266
0.131250	42910324547.681534	3774156.7754606642
0.137500	41416364767.711243	4417144.939004112
0.143750	39919267932.643631	8052125.1365921739
0.150000	38410267679.151344	7434016.4643647876
0.156250	36895877026.074554	5117913.8616093723
0.162500	35380846981.01722	5321380.2778243599
0.168750	33876720889.369537	5507775.0380824134
0.175000	32391406771.141724	5676357.7465943294
0.181250	30932017393.265999	5826684.1184909968
0.187500	29500427454.141663	10255329.90980085
0.193750	28111275966.122612	14322065.204662915
0.200000	26768633697.711151	6167542.184760076
0.206250	25484043855.832081	5744204.0628342321
0.212500	24233015577.942368	7658474.5173816895
0.218750	23023450376.462013	5693631.3031210136
0.225000	21849924764.042519	8252876.5954004405
0.231250	20722162081.128044	6424555.5844480572
0.237500	19640593032.737175	6232799.2942938404
0.243750	18606214335.409187	5482614.2746027922
0.250000	17619359965.167259	5416578.5324686635
0.256250	16681209634.056686	5347547.7152133966
0.262500	15791596889.798941	5276091.6216750871
0.268750	14952755517.268082	4324995.6016195714
0.275000	14153548659.778553	4242119.0376227153
0.281250	13394119996.07597	4367051.852802258
0.287500	12673867319.262005	4919248.5029534986
0.293750	11993805636.36791	3633187.2884495421
0.300000	11350123721.201973	3722186.2442503287
0.306250	10740532839.523207	4396227.0888109095
0.312500	10167424931.61129	4230687.1899742801
0.318750	9624642369.7638359	4645030.3314938722
0.325000	9114215574.5983543	4681876.1320828134
0.331250	8632421688.5149536	4094515.9836849868
0.337500	8177210008.0493269	3838253.4107173025
0.343750	7745923193.0377026	4149857.4529524543
0.350000	7335780702.4966402	4514324.4015933285
0.356250	6946841927.9629107	4095198.1623465889
0.362500	6577113743.8755779	3648261.3569226153
0.368750	6225251712.185297	3537766.6470695976
0.375000	5890207366.7028322	3521615.4037939822
0.381250	5570599923.7793484	3571050.7558296872
0.387500	5265751729.4185419	2927228.0331214974
0.393750	4975130262.3242435	2972135.5333710173
0.400000	4697594247.4160767	2996784.1790864719
0.406250	4433961212.7362461	2948688.4898891649
0.412500	4180934313.3696861	2545473.472982903
0.418750	3937171314.7323852	2750686.1403796622
0.425000	3703850606.9745622	2312953.7162174084
0.431250	3479704795.7751565	2039955.5334843134
0.437500	3264717964.339572	1791641.8272249475
0.443750	3059477269.1215897	1701008.1989577652
0.450000	2863039028.1518774	1920294.7771628606
0.456250	2676180649.4297194	1724399.382877165
0.462500	2498758691.015893	1588928.1817172752
0.468750	2331976387.57198	2385629.6841258807
0.475000	2172674372.4809561	2218721.2754192385
0.481250	2021238481.4701018	2110276.4569311333
0.487500	1877213488.4049687	1830005.7307609173
0.493750	1741200728.3669159	1928226.820167518
0.500000	1612998137.2095351	1982516.328947081
0.506250	1492792183.4786401	1687892.0485503352
0.512500	1380700070.3831935	1484894.06298045
0.518750	1276215652.4027295	1552603.7744804902
0.525000	1179479807.1929374	1346821.2352331067
0.531250	1090406924.4869435	1159483.1244309498
0.537500	1007913473.9327219	625425.4335968676
0.543750	931886238.37229407	581747.23442308384
0.550000	861968570.02794492	584685.92562587233
0.556250	797978811.37897587	579424.3779913797
0.562500	739472004.31905639	536529.92053674278
0.568750	686421921.17976129	535781.48165698268
0.575000	638339768.32460725	470016.23811132176
0.581250	594878117.74387932	527459.3591819416
0.587500	555664648.56730902	585802.20336692221
0.593750	520397388.61673784	538876.23894974182
0.600000	488558082.51100171	549512.59392367257
0.606250	460625447.83407754	558997.24317961698
0.612500	434982316.72204369	546288.86894892703
0.618750	411774469.30787194	533513.15209861938
0.625000	390614800.32625014	481424.64005764766
0.631250	371336450.35255653	472658.98815492052
0.637500	353674868.66399264	448253.36469594057
0.643750	337367194.50244093	425415.04364849773
0.650000	322207240.73074794	421523.63679829333
0.656250	307950675.59322548	428032.71465572796
0.662500	294510619.22178131	401154.31091334578
0.668750	281894247.66099519	350810.2377479616
0.675000	270664607.96555495	378089.19649300881
0.681250	259707694.96574393	356807.14718740893
0.687500	248937989.95502967	375665.71661341604
0.693750	238367055.81207219	408120.16864263074
0.700000	227996665.29009062	367415.46350645291
0.706250	217795031.09860486	399230.08338031441
0.712500	207903043.56347194	391267.48745275295
0.718750	198217885.42495888	368853.92189096683
0.725000	188848994.77503783	368778.28027380194
0.731250	179822600.07410145	368196.64814525243
0.737500	171884679.68459484	188373.25677963896
0.743750	164287267.18165514	241581.37681323438
0.750000	156935371.50246099	149767.90157958629
0.756250	149779699.97514039	159644.6537019969
0.762500	142984745.12100592	158352.41433971227
0.768750	136551040.17213199	153434.90080730346
0.775000	130538437.0236707	142332.48195499787
0.781250	124981317.44815376	137274.71320331434
0.787500	119898075.64379692	129147.10231507606
0.793750	115305632.31358698	136473.15400066733
0.800000	111168434.43189976	140464.09332669896
0.806250	108222062.53640123	126025.83097540874
0.812500	105419170.58137505	124091.83956879195
0.818750	102901515.49959506	116209.92385507897
0.825000	100668411.93493611	108755.63824439945
0.831250	98709902.057218492	103890.19249048067
0.837500	96992051.587155044	120159.3008453254
0.843750	95472928.029438227	106057.47276375922
0.850000	94142730.464477628	104774.88363380902
0.856250	92922128.527584702	109108.86027082766
0.862500	91720356.400920808	105856.03139296216
0.868750	90833351.78278403	163102.37269181223
0.875000	90181763.348095343	158430.76024987141
0.881250	89412289.870760337	153484.18114325887
0.887500	88508228.403741419	149342.32665370917
0.893750	87456634.714265794	144692.66970844459
0.900000	86239871.137977585	139730.31285071975
0.906250	84853493.358385414	134655.82812641322
0.912500	83292261.977632731	131392.9274369721
0.918750	81543374.234865278	125301.49886101866
0.925000	79615347.731218025	121288.72697159316
0.931250	77501481.14648059	116716.22401625528
0.937500	75526623.61691916	140688.93243079379
0.943750	73531372.757153794	132721.96981189479
0.950000	71308882.295348018	125030.10245748221
0.956250	68902150.264925882	117797.64168966371
0.962500	66356100.124855079	111162.76134944768
0.968750	63710208.610804558	112212.06848204321
0.975000	61025487.677651607	99940.084213863738
0.981250	58326835.708629392	95320.649497896316
0.987500	55658330.908109471	91248.302896787471
0.993750	53053662.437806383	87602.947594562604
1.000000	50544521.419456355	84209.148475594673
1.006250	48454019.321502745	90543.476392323122
1.012500	46345826.453777164	90947.052361053575
1.018750	44330800.161853552	86902.359889346757
1.025000	42428050.348752156	85887.011361578479
1.031250	40688139.477545902	81427.242700663046
1.037500	39118618.885758094	78035.156621889502
1.043750	37734222.070108302	78667.895697513784
1.050000	36555444.278256968	71844.409995872746
1.056250	35576049.991208538	71505.229773673243
1.062500	34782582.26664371	71238.910365958072
1.068750	34202750.076109283	75987.491364018206
1.075000	33880890.556756385	70401.365231983713
1.081250	33692106.280897051	66321.156719983774
1.087500	33627284.082178354	63833.992046655178
1.093750	33672949.444429733	62546.132141040223
1.100000	33813727.33806327	62994.122686505791
1.106250	34027897.964104638	63928.067859454452
1.112500	34292432.382367149	65194.038974596675
1.118750	34581127.421771273	66403.949989187313
1.125000	34865612.133554809	67245.015292790995
1.131250	35116044.638424098	67485.547076511692
1.137500	35433219.515625104	51758.313017001419
1.143750	35763410.575212374	51609.130506258494
1.150000	36010748.372000925	51368.215342849246
1.156250	36163800.759954289	51069.442368086638
1.162500	36213107.900326386	50742.023887365307
1.168750	36151061.381708235	50406.913734154667
1.175000	35971820.975765064	50074.154260132273
1.181250	35671235.30344753	49741.448656699205
1.187500	35246825.66706524	49394.265537589687
1.193750	34697762.514861137	49007.362070638177
1.200000	34024881.426051028	48547.643993935446
1.206250	33470817.501021039	66449.756645458459
1.212500	32750974.560964804	65459.141075084641
1.218750	31908578.646383893	64310.97860705015
1.225000	30960290.192398589	62672.123669017092
1.231250	29930509.3883816	61582.562098959279
1.237500	28833149.490258865	60018.228555670983
1.243750	27688700.981758654	58327.765385562023
1.250000	26515042.479911953	56507.036839077336
1.256250	25328301.473495811	54848.468351676951
1.262500	24145244.28512869	52539.377846057301
1.268750	23036718.388881255	28369.521356393576
1.275000	21988194.098180402	26252.222076815728
1.281250	20945435.588157181	24358.804255093433
1.287500	19926932.359299108	22676.133869820478
1.293750	18948775.394248091	21228.38011487123
1.300000	18024321.519038528	20099.372873550252
1.306250	17163860.091860458	19440.318986857215
1.312500	16374544.575964194	19443.663770861847
1.318750	15660238.636627477	20272.2029368
1.325000	15021539.37287873	21978.084162617746
1.331250	14455883.782494504	24476.617940842581
1.337500	13994793.746413324	36177.786126192055
1.343750	13619300.206748102	34990.45573668414
1.350000	13303692.586398654	34343.826746354869
1.356250	13046268.918780465	34306.857470068695
1.362500	12843534.103790322	34889.732116564388
1.368750	12690241.666971717	36039.582820394338
1.375000	12579515.073834166	37652.20250104164
1.381250	12502971.322002498	39592.876550914516
1.387500	12450908.748815579	41716.467468015042
1.393750	12412532.462304033	43881.28413244558
1.400000	12376219.223896258	45956.578217441565
1.406250	12405899.904312421	29971.588273880567
1.412500	12429671.434171734	28976.646458753912
1.418750	12443990.050401349	26810.333458561159
1.425000	12443811.949380478	27558.174981130593
1.431250	12426312.505636454	26301.385893336294
1.437500	12390647.334044367	25517.087974560614
1.443750	12333580.100523947	24781.322127192583
1.450000	12252994.290124509	24085.625812862185
1.456250	12147003.981227107	23418.060395310917
1.462500	12013954.64036132	22763.750217435623
1.468750	11875593.961249944	22113.801972938523
1.475000	11765570.930499043	22004.755689987298
1.481250	11622480.876339104	21853.668168565193
1.487500	11453902.306256087	21932.034102569571
1.493750	11264101.483738953	21970.826784703459
1.500000	11059238.265585758	21745.295022338123
1.506250	10845826.878544392	22201.051909367729
1.512500	10628109.805796744	22393.231644035826
1.518750	10410969.162856871	22638.081965620157
1.525000	10198288.322449086	22937.705474377002
1.531250	9993208.0854523089	23295.365041677273
1.537500	9820487.3907649126	18700.904250258056
1.543750	9680441.2253519464	19334.744013437063
1.550000	9545994.7928224374	19855.175548281481
1.556250	9422596.1066042371	20249.964992239042
1.562500	9314780.1752241887	20513.645777892729
1.568750	9226056.0551740881	20646.84206699939
1.575000	9158841.0590548441	20655.624985942817
1.581250	9114426.6585650463	20550.907672690366
1.587500	9092975.5769125111	20347.785743766686
1.593750	9093560.3851601761	20064.791930277333
1.600000	9114227.5090945698	19722.956396444399
1.606250	9193123.0567351095	37881.471564152169
1.612500	9286338.6284100488	36868.989410300906
1.618750	9392614.6048517115	36071.090458322578
1.625000	9510010.4521591477	35449.069646423864
1.631250	9638722.384316409	34188.473563401836
1.637500	9775458.7183825485	33447.993713389376
1.643750	9917939.6470986363	32641.573691913483
1.650000	10063396.728371743	31882.549043974323
1.656250	10208354.894412462	31367.32465755798
1.662500	10349933.408221375	30523.802046627407
1.668750	10488378.077902867	31256.948965170999
1.675000	10658670.031347241	31791.608865510349
1.681250	10818155.581827883	32281.721296323136
1.687500	10966288.803285917	32687.640135623136
1.693750	11102133.750694226	33053.631791891043
1.700000	11225222.372954089	33367.273366362373
1.706250	11335070.760232406	33629.879182173703
1.712500	11431255.664589873	33842.667237443624
1.718750	11513389.000593642	34007.042193576046
1.725000	11581123.097608384	34125.039139980116
1.731250	11634154.075614905	34199.849558699731
1.737500	11697959.759817051	19799.442781935009
1.743750	11768234.430041173	18536.794120400133
1.750000	11823423.016028434	17392.305634680128
1.756250	11865437.947159037	16425.5325575975
1.762500	11896138.470968915	15682.292684514898
1.768750	11917257.094990365	15197.932453065987
1.775000	11930327.053787034	14971.191703825931
1.781250	11936642.24136154	14986.58043462063
1.787500	11937220.369771926	15210.817513039339
1.793750	11932634.410834571	15810.73346186247
1.800000	11923764.76606207	16136.100497493935
1.806250	11986958.441926699	37379.148038400235
1.812500	12007356.075313512	38750.407294774108
1.818750	12024552.192942522	40211.649760062079
1.825000	12040073.692257209	41825.109873024543
1.831250	12055331.10324345	43562.678610230963
1.837500	12071240.853239885	45416.452198654581
1.843750	12088226.571065815	47329.732333933352
1.850000	12106423.913315935	49264.843577653752
1.856250	12125413.976367537	51293.500419663309
1.862500	12144676.835928231	53224.415272827377
1.868750	12157471.243066706	33775.318035103577
1.875000	12212115.045133485	33497.447566475254
1.881250	12266664.0694356	33154.695973325135
1.887500	12321473.272677358	32793.809610796692
1.893750	12376758.883570353	32253.419623012422
1.900000	12432290.710712612	31686.50197400391
1.906250	12487679.562656563	31038.957289992533
1.912500	12542237.167512685	30311.220394435088
1.918750	12595018.803452108	29506.78110551909
1.925000	12644845.638051026	28632.99989485697
1.931250	12690340.860813091	27701.922471645885
1.937500	12768429.915184215	28045.325245506509
1.943750	12843736.995622857	28015.031428513357
1.950000	12915511.338541422	28118.10315783069
1.956250	12984227.158557426	28278.604301652183
1.962500	13050342.074562153	28713.671774056518
1.968750	13113825.93158045	29185.291813400854
1.975000	13174581.078379877	29749.796537261009
1.981250	13232212.733600244	30384.859644209828
1.987500	13286068.674996696	31065.756064819583
1.993750	13335249.607513849	31766.79133336389
2.000000	13378617.725683369	32462.434918836152
2.006250	13441107.356216108	55760.813198959644
2.012500	13516178.343007922	57049.603036348468
2.018750	13587109.480069142	58323.768937874149
2.025000	13654302.39471158	59560.314920044853
2.031250	13717846.662869919	60737.907983104582
2.037500	13777514.732633334	61838.079644378304
2.043750	13832740.820424387	62845.751395618936
2.050000	13882613.296295464	63749.598923076766
2.056250	13925896.903697336	64542.537914828477
2.062500	13961036.750338817	65221.451694141644
2.068750	14028673.809833657	55841.973237120656
2.075000	14091047.370631883	55110.343408546709
2.081250	14144612.997763431	54365.55469993416
2.087500	14189594.938047772	53610.421421805026
2.093750	14225951.893467793	52844.940187526583
2.100000	14253377.109021461	52066.452886112493
2.106250	14271287.705583129	51270.151399907605
2.112500	14278828.933078129	50449.642339452781
2.118750	14274891.381390017	49597.253120183414
2.125000	14258131.12486263	48704.847870230493
2.131250	14227000.72014096	47764.211628222321
2.137500	14205121.299708787	13004.945903993363
2.143750	14195535.393244544	12275.517873914512
2.150000	14171050.938060656	11713.11799042832
2.156250	14132125.074515939	11387.689787355877
2.162500	14079158.190381017	11319.852750097236
2.168750	14012356.480203534	11511.677563681151
2.175000	13931799.747273937	11942.524861313901
2.181250	13837379.317738349	12570.801576253149
2.187500	13728817.579934016	13339.614404487682
2.193750	13605705.750628304	14187.484370316562
2.200000	13467511.855400924	15105.224748135113
2.206250	13344566.885424096	48573.790399858852
2.212500	13221465.963507684	48192.585251362485
2.218750	13084454.082899904	47742.431665287135
2.225000	12933343.774001196	47498.982951258251
2.231250	12771832.892339626	46562.250869813812
2.237500	12599431.047739061	45834.982864104641
2.243750	12417342.821583334	45083.645143072346
2.250000	12226396.597738028	44420.394361454419
2.256250	12026930.811069621	43477.911446831989
2.262500	11820033.325140808	42716.503945131946
2.268750	11630917.160274766	42015.157332357936
2.275000	11447096.105474332	42346.120806165425
2.281250	11253764.89698891	42563.129596047183
2.287500	11052671.310620282	42673.695075303003
2.293750	10845332.854641734	42688.427861865006
2.300000	10632942.109368481	42662.157621638165
2.306250	10416766.244062662	42484.040961349492
2.312500	10197256.597122882	42294.397531774244
2.318750	9974935.8816074748	42065.427890655323
2.325000	9749956.1093940046	41808.792688378475
2.331250	9522234.1211164854	41532.468288888093
2.337500	9309605.7364706546	22593.797175682994
2.343750	9107220.8977161683	22305.848679686907
2.350000	8900275.5221674629	22130.739359705396
2.356250	8689933.9703550152	22053.105356788437
2.362500	8477196.9370259307	22053.579849119826
2.368750	8262834.0397399664	22109.899944783523
2.375000	8047443.8846414508	22198.17098778252
2.381250	7831234.4138162136	22604.037151435838
2.387500	7614862.7643033285	22381.550371513567
2.393750	7397880.7960593281	22417.757184285394
2.400000	7180253.1642877134	22405.699650996445
2.406250	6990323.1022182228	22443.748249171564
2.412500	6793423.9137899894	21735.328126550496
2.418750	6594272.4492701516	21131.390882619515
2.425000	6393838.2315267529	20622.097696544814
2.431250	6193504.5212963056	20162.68514973456
