#List of files for average calculation
#C:\D+_tests\Symmetry\GPU\WH\Space_Filling_Symmetry_Implicit_No_Charges_With_Hydration_Hybrid_VEGAS\Space_Filling_Symmetry_Implicit_No_Charges_With_Hydration_Hybrid_VEGAS_1
#C:\D+_tests\Symmetry\GPU\WH\Space_Filling_Symmetry_Implicit_No_Charges_With_Hydration_Hybrid_VEGAS\Space_Filling_Symmetry_Implicit_No_Charges_With_Hydration_Hybrid_VEGAS_2
#C:\D+_tests\Symmetry\GPU\WH\Space_Filling_Symmetry_Implicit_No_Charges_With_Hydration_Hybrid_VEGAS\Space_Filling_Symmetry_Implicit_No_Charges_With_Hydration_Hybrid_VEGAS_3
#C:\D+_tests\Symmetry\GPU\WH\Space_Filling_Symmetry_Implicit_No_Charges_With_Hydration_Hybrid_VEGAS\Space_Filling_Symmetry_Implicit_No_Charges_With_Hydration_Hybrid_VEGAS_4
#C:\D+_tests\Symmetry\GPU\WH\Space_Filling_Symmetry_Implicit_No_Charges_With_Hydration_Hybrid_VEGAS\Space_Filling_Symmetry_Implicit_No_Charges_With_Hydration_Hybrid_VEGAS_5
#C:\D+_tests\Symmetry\GPU\WH\Space_Filling_Symmetry_Implicit_No_Charges_With_Hydration_Hybrid_VEGAS\Space_Filling_Symmetry_Implicit_No_Charges_With_Hydration_Hybrid_VEGAS_6
#C:\D+_tests\Symmetry\GPU\WH\Space_Filling_Symmetry_Implicit_No_Charges_With_Hydration_Hybrid_VEGAS\Space_Filling_Symmetry_Implicit_No_Charges_With_Hydration_Hybrid_VEGAS_7
#C:\D+_tests\Symmetry\GPU\WH\Space_Filling_Symmetry_Implicit_No_Charges_With_Hydration_Hybrid_VEGAS\Space_Filling_Symmetry_Implicit_No_Charges_With_Hydration_Hybrid_VEGAS_8
#C:\D+_tests\Symmetry\GPU\WH\Space_Filling_Symmetry_Implicit_No_Charges_With_Hydration_Hybrid_VEGAS\Space_Filling_Symmetry_Implicit_No_Charges_With_Hydration_Hybrid_VEGAS_9
#C:\D+_tests\Symmetry\GPU\WH\Space_Filling_Symmetry_Implicit_No_Charges_With_Hydration_Hybrid_VEGAS\Space_Filling_Symmetry_Implicit_No_Charges_With_Hydration_Hybrid_VEGAS_10
#Average Chi square (Sigma units): 1.5803124186475
#Sigma Chi square: 0.32006254929317
#Calculation was done on GPU
q [nm^-1]	Intensity [A.U]	Sigma [A.U]
0.000000	62833252731.897842	1.219643026558614e-005
0.006250	62894098577.30703	516405.14423312986
0.012500	62827756586.548569	1400177.231745156
0.018750	62641972695.776024	274690.07525905588
0.025000	62339075333.101639	262625.62690579868
0.031250	61921985739.391335	940549.01757277909
0.037500	61391149772.808594	1301501.1609529215
0.043750	60743038701.103592	3836352.4482132494
0.050000	59986555221.666298	1488895.0080253524
0.056250	59108840717.860229	2146998.0876841736
0.062500	58114165040.271957	762578.32712660555
0.068750	57078613714.090714	1729676.0883703136
0.075000	56076585193.402527	4846592.0352135701
0.081250	54960995928.027412	8282658.4075511368
0.087500	53749319547.436691	6645080.8646938344
0.093750	52449208363.760216	6392946.4494196381
0.100000	51074112022.793533	6455623.2633165009
0.106250	49633240438.732231	7686559.0217741635
0.112500	48137168458.434563	8270667.764076883
0.118750	46597046886.350693	4717060.8580325525
0.125000	45015579571.967796	5155694.169523892
0.131250	43401751471.497299	5551664.5103437454
0.137500	41862736966.919411	3988322.668801093
0.143750	40333972928.691635	12060631.763848357
0.150000	38800215340.876595	3956705.1099854242
0.156250	37241363097.983513	13074042.697944473
0.162500	35700598652.039375	4164296.0361353024
0.168750	34160329123.293816	7784044.3511220841
0.175000	32641135142.125	6781054.9340244625
0.181250	31145012402.83844	5351643.5273948843
0.187500	29679846400.405987	6526802.2886774382
0.193750	28246741068.868744	4482021.9525515093
0.200000	26851309646.008598	4790652.8894545361
0.206250	25574677048.706703	7105427.3208762556
0.212500	24325458466.735832	9566741.7080389131
0.218750	23114003874.560448	5691474.8003320405
0.225000	21940579037.789265	9067296.6698450632
0.231250	20812147913.655567	7250895.989041036
0.237500	19726636184.680779	4764780.243880894
0.243750	18683997796.374321	5373115.8288909439
0.250000	17688233342.714436	3852246.3745980943
0.256250	16736764235.52356	4081613.1174650434
0.262500	15829320298.811924	4116554.6619023448
0.268750	14975487511.825678	2546760.0518231578
0.275000	14187465264.706335	2856791.7681619748
0.281250	13436112428.878668	3082027.0180214965
0.287500	12720208696.827259	4668902.6737843724
0.293750	12041160797.37727	4176523.8339460152
0.300000	11397378731.007053	4298719.2769055162
0.306250	10785581572.721479	4211664.9506362565
0.312500	10206049694.657003	6691933.4076866983
0.318750	9658921308.6896324	5460805.351614207
0.325000	9139524286.0059891	6089846.1396028819
0.331250	8646718894.0214691	5633545.4523475189
0.337500	8194388331.6654329	3040193.4160835743
0.343750	7767207016.8857899	2824050.7625722429
0.350000	7360097876.6694613	2589621.4566508252
0.356250	6971860683.4170637	2464894.4748886097
0.362500	6601691867.9997778	2455313.2138751117
0.368750	6248900235.5622616	2014208.5894184734
0.375000	5912045585.38381	1597880.6835525883
0.381250	5589495238.6710882	1710738.1608919271
0.387500	5281426751.3638802	1590832.6136303905
0.393750	4986330741.7069139	1444468.0428834618
0.400000	4703569022.0522594	1382199.4082343311
0.406250	4443402248.150876	2762566.7576999608
0.412500	4191986056.3499765	2694353.894760523
0.418750	3949918958.0289888	2497623.6900771488
0.425000	3716401058.3667555	2361856.7933275024
0.431250	3492831630.6139555	2365875.2120611789
0.437500	3277575731.840735	2253013.9864920825
0.443750	3071478332.7751088	2301699.0246432489
0.450000	2873758521.6256113	2729928.1232430409
0.456250	2685097243.210917	2215593.441764032
0.462500	2505202622.4686747	2325536.3473693612
0.468750	2334222257.3881946	1118462.6606782086
0.475000	2175758263.0238752	1159493.6662399576
0.481250	2024781454.7077625	1249497.2878024282
0.487500	1881236329.9412849	1231503.1623380252
0.493750	1745730380.6733508	900937.11223406601
0.500000	1617661478.4947402	1006556.152064919
0.506250	1497719666.9832025	739622.62979033496
0.512500	1384943260.1384284	838186.97107212315
0.518750	1280036783.5944197	526718.46351856447
0.525000	1182298232.1803412	563598.67955109826
0.531250	1091892974.0923073	356018.76135676808
0.537500	1009925222.1965849	845729.06684702542
0.543750	934388807.40965676	920840.85276809486
0.550000	864904671.51951444	750925.38566410169
0.556250	801192428.62307966	744723.3109232795
0.562500	742940129.40273094	786719.62864054937
0.568750	689807520.63336253	742811.02139460773
0.575000	641543188.31836081	717187.34383885993
0.581250	597855720.26765263	715201.86026878702
0.587500	558272945.74149454	673496.36920854822
0.593750	522500188.48055458	640840.03215694602
0.600000	490218903.6583519	613426.9136416926
0.606250	462179306.87213773	714093.77374399442
0.612500	436700266.23992032	688616.34016878786
0.618750	413511352.16108036	644453.24542743142
0.625000	392314998.20688385	565785.29205918801
0.631250	372858807.82072133	530085.71970052284
0.637500	354984975.99694675	467975.42862069444
0.643750	338423828.26131755	424650.35914450465
0.650000	322965223.93168908	413565.01515686698
0.656250	308593661.85558498	333243.34607357968
0.662500	295057928.3955152	293393.30282199703
0.668750	282521616.02009737	485772.97609795991
0.675000	271189144.42192638	447122.52686925209
0.681250	260101601.44466305	391294.53598263283
0.687500	249232462.76172996	356286.45899656561
0.693750	238559243.93912554	331319.09148279636
0.700000	228082056.98365396	297115.40721793205
0.706250	217848531.8147983	248985.47791313793
0.712500	207855621.59634399	244450.38567509435
0.718750	198181256.79870385	271197.13618762587
0.725000	188904978.27010107	217669.05368574164
0.731250	180020922.53352195	218482.12641424389
0.737500	171961293.93405733	336873.74386686034
0.743750	164234235.93503231	334353.03068983176
0.750000	156811204.65007037	324953.41917027324
0.756250	149603674.00431889	315257.70740182308
0.762500	142759646.74079543	287537.01767173485
0.768750	136341580.09405518	248931.26318446323
0.775000	130364759.21590896	228299.17455555737
0.781250	124874274.1215477	199081.75387248571
0.787500	119893943.81859803	169785.23673159486
0.793750	115406084.01988223	143806.45244490798
0.800000	111391639.77299802	116358.10853880593
0.806250	108246702.13566284	150754.77638204035
0.812500	105319127.32642005	146181.79105422681
0.818750	102715605.53779957	133886.23951731238
0.825000	100458490.43674494	123099.46289368563
0.831250	98505214.32789585	112154.34314201416
0.837500	96840192.994805932	101977.55563077517
0.843750	95411630.959604293	96577.138824168986
0.850000	94167702.477960065	95156.434237857437
0.856250	93041459.578735664	97201.394947709821
0.862500	91953887.259485677	104666.43863600983
0.868750	91022038.138791651	103049.27317236693
0.875000	90189066.620207161	102545.98000124958
0.881250	89312325.888400987	103475.25796003715
0.887500	88371204.77770856	105483.57624451042
0.893750	87344343.743585378	108393.27736495138
0.900000	86200727.852805331	111230.13010748792
0.906250	84914686.517320231	114264.70050466298
0.912500	83457510.206312642	113378.33096434109
0.918750	81809285.742704734	118815.16791528482
0.925000	79937517.173393428	118672.61155986397
0.931250	77851903.245862156	121305.78600907404
0.937500	75739253.254504755	131980.83457499687
0.943750	73558584.995676517	121030.88729670798
0.950000	71234297.426931232	111242.19169308836
0.956250	68797096.259500906	101519.78939821415
0.962500	66268186.397375539	97087.814340682991
0.968750	63680532.268844366	87807.787025914819
0.975000	61061797.178331554	78976.137781592988
0.981250	58405386.645062611	83004.61054569346
0.987500	55794038.895702623	71665.347117547601
0.993750	53195974.907549582	78980.845199665258
1.000000	50672885.374410585	70012.245090211465
1.006250	48325958.324653469	87098.350688336053
1.012500	46140451.536528744	83816.863665208657
1.018750	44090662.176944003	83718.674345957406
1.025000	42202141.079307869	77952.038609984447
1.031250	40491585.341893852	73589.092044464036
1.037500	38968576.50353419	71585.503268274173
1.043750	37636475.736748114	68171.325436356492
1.050000	36499632.589657426	66212.71503702394
1.056250	35555166.414354645	64923.050776355645
1.062500	34801623.378157981	65471.629514570996
1.068750	34235774.369797751	62817.41638547591
1.075000	33863576.99713444	62098.526510099939
1.081250	33641722.301344939	61900.295417689587
1.087500	33555736.93820326	62070.974909157187
1.093750	33588483.40219374	62454.425100953478
1.100000	33720811.076066367	62906.618303110583
1.106250	33932024.973995589	63304.613965627934
1.112500	34200192.294002175	63549.659734191242
1.118750	34502390.187850937	63568.027855116663
1.125000	34815699.087423421	63494.736689113488
1.131250	35113414.981723614	62744.512742416482
1.137500	35460826.461553849	40410.728248216546
1.143750	35741986.050707966	41331.484459484745
1.150000	35954416.59945228	42155.114325923962
1.156250	36085447.019853115	42892.247396768755
1.162500	36124667.944489405	43558.472651106094
1.168750	36063739.345372051	44170.242596685799
1.175000	35896214.537593886	44741.506053118443
1.181250	35617392.314232215	45281.808597063442
1.187500	35224302.066383526	45794.773154908631
1.193750	34715949.480722502	46268.67387891034
1.200000	34092492.666938908	46722.284328944501
1.206250	33419203.251196187	55776.352460985079
1.212500	32650442.329353683	55160.769135321621
1.218750	31781723.199056584	54514.017822698181
1.225000	30827416.317638468	53815.676684982936
1.231250	29800757.557422847	49783.583333193768
1.237500	28721742.941621978	52164.873644046158
1.243750	27600265.426000595	51159.967659520044
1.250000	26452603.66978782	50002.600874107462
1.256250	25292968.42360235	48703.065050203426
1.262500	24135345.788981631	47156.439316746721
1.268750	23012556.231034301	57960.83614580772
1.275000	21915442.906845145	53698.632434871783
1.281250	20846460.906351693	49638.66381216162
1.287500	19819302.868737243	45779.722822466567
1.293750	18845511.226776447	42347.340860019089
1.300000	17934100.448768388	39289.347192152905
1.306250	17092075.956343532	36805.761256299251
1.312500	16323916.593752149	35550.881833800056
1.318750	15634453.589198336	34333.318809324795
1.325000	15023447.393932721	34703.398276353
1.331250	14491127.108431077	36242.971580134326
1.337500	14006440.980572414	17879.129506463774
1.343750	13622593.218215371	18141.763217258384
1.350000	13302239.798322188	19278.455535567482
1.356250	13043466.19215701	21264.416019903383
1.362500	12839554.807015857	23704.402112873449
1.368750	12684100.306142401	26622.986290187815
1.375000	12570689.187636467	29772.595685763055
1.381250	12492696.239373496	33014.703804305493
1.387500	12443297.920940019	36240.201103235748
1.393750	12415316.003615154	39360.298568904138
1.400000	12400986.221496362	42298.413003896654
1.406250	12437665.987042155	32520.494647311956
1.412500	12460113.723707044	31768.064479622117
1.418750	12470114.037390923	31062.036599234321
1.425000	12464036.621986952	30804.23877095366
1.431250	12437754.513339195	29825.461189713718
1.437500	12391374.267684229	29173.536122541736
1.443750	12324491.672303829	28612.15215382625
1.450000	12237342.295087259	28082.761290886876
1.456250	12130354.704401586	27576.318124051741
1.462500	12003658.293572122	27114.697954118375
1.468750	11888199.59577457	25770.921665316786
1.475000	11779054.571281012	25308.673360076569
1.481250	11635740.96628822	24790.610682307812
1.487500	11463094.891041031	24520.801271034179
1.493750	11268135.067413893	23763.354609323789
1.500000	11057259.541664802	23250.978528185653
1.506250	10837607.096268807	22767.425525653973
1.512500	10615570.248612501	22327.507497779039
1.518750	10396484.483805798	21943.975862341766
1.525000	10183802.50511585	20979.348217987274
1.531250	9981070.5869768653	21383.785643703937
1.537500	9820916.8890119754	29234.818594375429
1.543750	9688654.1922536194	27900.21210434621
1.550000	9557616.3243695665	26547.140877398739
1.556250	9434242.8096196819	25215.962871905394
1.562500	9324379.3693265188	23942.928713517234
1.568750	9232815.4512422495	22758.140073594044
1.575000	9162944.912334634	21684.398006009378
1.581250	9116551.9211310335	20737.21882376089
1.587500	9093730.7004455216	19925.173186665485
1.593750	9092949.2946593314	19251.43022772091
1.600000	9111233.8301780801	18715.151793967441
1.606250	9212672.1383210178	19921.910009686417
1.612500	9305704.3384852968	19379.102948449701
1.618750	9408959.4777305666	19270.156537466373
1.625000	9521965.4073412642	19860.51625026812
1.631250	9647142.3389384709	19129.089722319703
1.637500	9780882.2011288516	19251.345635544727
1.643750	9921844.8148030993	19487.546242225955
1.650000	10067008.132063026	19819.440434953758
1.656250	10212492.538446069	20283.699524735293
1.662500	10354611.440726388	20683.352640132816
1.668750	10487142.668560203	22386.724033232094
1.675000	10656474.62326926	22808.713319778675
1.681250	10815117.963752622	23148.706783452253
1.687500	10963124.743316768	23419.675409770673
1.693750	11100235.551970366	23634.844575758863
1.700000	11225883.527178939	23808.102034110918
1.706250	11339253.199789975	23953.992386923561
1.712500	11439384.929807302	24087.238644401397
1.718750	11525276.50274967	24221.843187672737
1.725000	11596009.18890455	24369.79131717889
1.731250	11650851.31044	24539.743771731086
1.737500	11724472.249172341	32998.037253569382
1.743750	11790400.84898849	32891.423621251328
1.750000	11843810.96676206	32924.440805391831
1.756250	11885936.408721088	32872.989027713753
1.762500	11919028.979661915	33423.438574273387
1.768750	11943199.955485638	33866.925246775223
1.775000	11959636.294144526	34412.793608811946
1.781250	11969005.122014975	35037.842476542901
1.787500	11971931.011727504	35715.269600430482
1.793750	11968715.926725827	36425.081700845869
1.800000	11959611.165925968	37145.935243100015
1.806250	11991842.715842411	27685.350337419928
1.812500	12012334.433639213	28422.1691764139
1.818750	12030891.204948541	29124.087394066926
1.825000	12048421.793287743	29770.683257209064
1.831250	12066139.460942378	30422.075224615724
1.837500	12084086.781767134	31020.217005371076
1.843750	12102616.096494658	31586.40912391185
1.850000	12121604.830739923	32097.892460325213
1.856250	12140830.438745651	32636.805562258251
1.862500	12159314.407717174	33100.02212124315
1.868750	12170557.402975131	25361.243923305665
1.875000	12228054.643432565	23900.230485373493
1.881250	12284992.277449932	22405.369357997806
1.887500	12342029.26031832	21000.054912149808
1.893750	12398848.573124228	20052.383088649854
1.900000	12455641.078269459	19027.483895487072
1.906250	12511784.470161287	18384.201723948096
1.912500	12566714.553719752	18047.56142644924
1.918750	12619533.903245308	18029.502258375796
1.925000	12669062.829617975	18316.460848746639
1.931250	12713845.507789081	18871.440641139667
1.937500	12790181.918691969	11993.012077732392
1.943750	12869165.647378568	11733.414219144226
1.950000	12943485.870217498	11617.781651289402
1.956250	13013929.481492961	11646.973085459083
1.962500	13080809.226227378	11856.404042764851
1.968750	13144419.258483917	12244.215240679241
1.975000	13204728.439160973	12805.787339730823
1.981250	13261394.609459538	13528.269553261995
1.987500	13313742.429410303	14393.567122237409
1.993750	13360763.455235722	15381.078232041806
2.000000	13401123.972390948	16469.836002283198
2.006250	13463717.90827789	31839.973939921438
2.012500	13542088.36832137	33419.971736715306
2.018750	13615280.677235043	35021.70874048688
2.025000	13683984.672646295	36538.095832674444
2.031250	13748206.040497091	38246.8407890936
2.037500	13807867.34404631	39874.3891100248
2.043750	13862829.081599753	41420.128185379443
2.050000	13911844.16425908	42960.582919766559
2.056250	13953388.961775824	44441.003893725589
2.062500	13985937.763608089	45862.462259098196
2.068750	14034379.904463332	45705.355015666508
2.075000	14100939.329022154	45315.269609227005
2.081250	14157253.300354093	44835.34534188926
2.087500	14203939.520838499	44409.47983899332
2.093750	14241403.221805483	43417.666820794744
2.100000	14269123.846401978	42574.067177544472
2.106250	14286687.170898218	41654.133774478178
2.112500	14293239.688389281	40667.246578469545
2.118750	14287562.274337526	39627.537618359027
2.125000	14268120.893240497	38549.658773242918
2.131250	14233107.622657338	37448.251862782803
2.137500	14214575.670041805	51947.213506897591
2.143750	14207503.404381434	51232.120347276315
2.150000	14184438.847752437	50496.904691181808
2.156250	14146132.508583385	49745.367103437769
2.162500	14093100.559574682	48979.319292817781
2.168750	14025601.619498763	48198.897890504792
2.175000	13943634.904841531	47402.933170713157
2.181250	13846919.680260912	46589.023498203947
2.187500	13734931.763024265	45754.172923653765
2.193750	13606903.177723309	44894.846606230647
2.200000	13461868.566552967	44007.362559078814
2.206250	13366466.957581956	24249.814529206124
2.212500	13246127.847008638	24414.374775274293
2.218750	13110508.21067442	24790.065307867411
2.225000	12961125.1586532	25435.318317227324
2.231250	12800671.949951544	25444.988314993498
2.237500	12628664.074235199	25650.466007740295
2.243750	12446629.087748114	26502.008953433979
2.250000	12254113.429376669	26940.615828314942
2.256250	12052620.948866308	27870.495205748677
2.262500	11840574.373455364	28592.440143146352
2.268750	11638682.343907043	34333.863758962019
2.275000	11457868.28675673	34926.026351231376
2.281250	11267140.557729427	35535.536567752344
2.287500	11068414.308895914	36160.176887338319
2.293750	10863236.883722039	36798.145095758598
2.300000	10652788.863454586	37446.901345053273
2.306250	10437822.686767101	38102.730257249874
2.312500	10218738.87140698	38759.671146339744
2.318750	9995558.7936155461	39409.325921495321
2.325000	9768035.9124389254	40006.71608600238
2.331250	9535540.3450130187	40639.448358649599
2.337500	9338577.1538179666	27613.232330540526
2.343750	9137142.529105762	27110.635419018046
2.350000	8930862.2809898853	26685.516525855342
2.356250	8721109.2009276934	26187.848085493497
2.362500	8509041.2772548907	25836.24809953411
2.368750	8294996.8564570574	25435.423586423363
2.375000	8079369.9586969167	25043.03731517007
2.381250	7862171.5445497315	24648.711144266599
2.387500	7643192.4627466053	24243.464336840054
2.393750	7422088.3129089996	23815.495979072468
2.400000	7198389.7068724055	23353.787621616
2.406250	7004846.815966283	24391.103873913828
