#List of files for average calculation
#C:\D+_tests\D+_Phase_1\GPU\No_Charges\V_54\Explicit_Ring_PDB_Solution_without_Solvation\Explicit_Ring_PDB_Solution_without_Solvation_1
#C:\D+_tests\D+_Phase_1\GPU\No_Charges\V_54\Explicit_Ring_PDB_Solution_without_Solvation\Explicit_Ring_PDB_Solution_without_Solvation_2
#C:\D+_tests\D+_Phase_1\GPU\No_Charges\V_54\Explicit_Ring_PDB_Solution_without_Solvation\Explicit_Ring_PDB_Solution_without_Solvation_3
#C:\D+_tests\D+_Phase_1\GPU\No_Charges\V_54\Explicit_Ring_PDB_Solution_without_Solvation\Explicit_Ring_PDB_Solution_without_Solvation_4
#C:\D+_tests\D+_Phase_1\GPU\No_Charges\V_54\Explicit_Ring_PDB_Solution_without_Solvation\Explicit_Ring_PDB_Solution_without_Solvation_5
#C:\D+_tests\D+_Phase_1\GPU\No_Charges\V_54\Explicit_Ring_PDB_Solution_without_Solvation\Explicit_Ring_PDB_Solution_without_Solvation_6
#C:\D+_tests\D+_Phase_1\GPU\No_Charges\V_54\Explicit_Ring_PDB_Solution_without_Solvation\Explicit_Ring_PDB_Solution_without_Solvation_7
#C:\D+_tests\D+_Phase_1\GPU\No_Charges\V_54\Explicit_Ring_PDB_Solution_without_Solvation\Explicit_Ring_PDB_Solution_without_Solvation_8
#C:\D+_tests\D+_Phase_1\GPU\No_Charges\V_54\Explicit_Ring_PDB_Solution_without_Solvation\Explicit_Ring_PDB_Solution_without_Solvation_9
#C:\D+_tests\D+_Phase_1\GPU\No_Charges\V_54\Explicit_Ring_PDB_Solution_without_Solvation\Explicit_Ring_PDB_Solution_without_Solvation_10
#Average Chi square (Sigma units): 1.3977231376441
#Sigma Chi square: 0.2528702275386
#Calculation was done on GPU
q [nm^-1]	Intensity [A.U]	Sigma [A.U]
0.000000	22747798583.392128	4.0210439811304468e-006
0.006250	22732868046.377663	90770.009367355684
0.012500	22486645883.715714	149392.24204493567
0.018750	22023655811.526543	350207.66008113959
0.025000	21361682263.658279	723230.1011077757
0.031250	20521321541.939045	1251205.6783470761
0.037500	19525565336.767601	1923434.4537799405
0.043750	18399416618.042522	2728791.7452854724
0.050000	17169537896.429861	3653316.7715245541
0.056250	15974822881.617426	3626803.5154645313
0.062500	14687745150.169765	4563069.5931049725
0.068750	13354178051.305897	5502427.1428129515
0.075000	12015250589.223637	6385497.3744163383
0.081250	10707179249.518158	7162391.317404693
0.087500	9460303781.870079	7794370.5537408954
0.093750	8298431365.5799656	8254871.6851778105
0.100000	7238489157.9493351	8529925.3833160419
0.106250	6294548079.7293329	4979429.7719732095
0.112500	5445640291.5350046	5018254.5474887071
0.118750	4703681954.9324045	4990856.6453800136
0.125000	4077812619.4352708	4905934.6803384256
0.131250	3570889350.3092299	4775951.4781996915
0.137500	3179694669.522995	4616346.4908558391
0.143750	2895355202.606411	4444240.1842826633
0.150000	2703971031.4153018	4276527.6525519183
0.156250	2602686346.5831957	2940535.7723740805
0.162500	2571084677.2946863	2797981.5928537049
0.168750	2595646251.3617988	2672968.6485484722
0.175000	2662263236.2458596	2574503.6612881077
0.181250	2755951368.3079958	2507674.8515531961
0.187500	2861282389.2164836	2472432.0574882822
0.193750	2962866669.1159158	2463500.7282499587
0.200000	3045886016.5581636	2471613.10185601
0.206250	3144830899.3958359	4900675.5914550722
0.212500	3210815362.8524294	4603892.0252291635
0.218750	3240870216.1735282	4324321.4951661685
0.225000	3233689880.15627	4068370.9971032622
0.231250	3189702228.7198725	3840894.6085735774
0.237500	3110736993.9747038	3645013.4837724054
0.243750	2999728761.175458	3482180.4657304971
0.250000	2860454553.5584326	3352525.7906669015
0.256250	2732427290.9827104	4314150.3571161106
0.262500	2576437294.9571061	4341326.1773210587
0.268750	2402629864.7239494	4372533.3169620223
0.275000	2221245249.528379	4396602.1162014771
0.281250	2041436885.659965	4402138.9599076137
0.287500	1870804726.3039143	4379345.957496861
0.293750	1715061822.7213936	4321463.3629335035
0.300000	1577834156.7589664	4225646.3940626867
0.306250	1474588242.7732983	3880766.1088507627
0.312500	1386645637.3792496	3866699.4406032423
0.318750	1318374788.6180596	3806459.7839431991
0.325000	1271579557.1098588	3703881.9879755708
0.331250	1246023408.4711986	3565445.9165298943
0.337500	1239474509.4582059	3399855.1513382047
0.343750	1247860731.644165	3217469.8137343689
0.350000	1265534562.6315305	3029590.3283972684
0.356250	1302921520.6499686	2131058.1014646469
0.362500	1341778078.313262	2046036.917910431
0.368750	1380361214.3346369	1987360.1806898196
0.375000	1415687728.3402565	1953004.8098247421
0.381250	1444678591.3615661	1936753.763709021
0.387500	1464243573.8261907	1930140.1025738537
0.393750	1471393058.8427653	1924628.2516141275
0.400000	1463377040.7796936	1913346.6928708332
0.406250	1456387111.050837	2202427.1197900465
0.412500	1433108119.9981487	2107118.7988307024
0.418750	1394674666.2229729	2000753.8145090675
0.425000	1343816387.3336301	1884578.1656515906
0.431250	1283385501.3012161	1760601.4064642137
0.437500	1216165848.2638915	1631555.9937098215
0.443750	1144720165.1326921	1500909.5514357842
0.450000	1071275592.9988779	1372918.1162570051
0.456250	1009268661.8279747	1141132.5286551204
0.462500	944856058.86510587	1126863.8980196794
0.468750	882678838.12673378	1110019.4586310242
0.475000	826055592.02374768	1089689.7670168215
0.481250	777347990.43174338	1066648.4723531257
0.487500	737853710.71708834	1043112.6235594272
0.493750	707767598.89346087	1022210.8793681124
0.500000	686211061.90887916	1007165.9572497107
0.506250	677965695.81463265	984443.38763942884
0.512500	676400048.49181032	996544.22200942494
0.518750	680696289.53900552	1003381.8042418408
0.525000	690022233.90508914	1003704.676368541
0.531250	702959843.40925276	997092.81570624991
0.537500	717565210.93004143	983814.75796850794
0.543750	731464710.30287242	964634.0018156541
0.550000	741987311.92604089	940591.37020869448
0.556250	756862452.3595804	986042.23723929911
0.562500	765551320.57921326	961516.97516675922
0.568750	768159307.82060981	930375.11405223201
0.575000	764615174.81714058	892030.07879984356
0.581250	754954834.92458916	847052.65036375413
0.587500	739287032.21228766	797058.21076596796
0.593750	717773255.68539131	744512.46447925712
0.600000	690621889.63829136	692447.95623875374
0.606250	666233259.50827575	1025450.0818594474
0.612500	636079699.53166556	1021098.5776976674
0.618750	602239521.80167699	1016510.1969311837
0.625000	566776074.55814576	1011157.0501756107
0.631250	531485199.31460321	1004411.3087982635
0.637500	497799037.0594784	995667.18819859752
0.643750	466721387.50484067	984475.22234773519
0.650000	438794621.38268316	970644.01672885905
0.656250	418943634.60627764	729054.53627622395
0.662500	401074987.82174188	692431.73575098126
0.668750	386750679.39358687	654303.68651184649
0.675000	376522778.48446739	616889.96987464372
0.681250	370457850.43950975	582755.65487250907
0.687500	368135538.64853704	554328.74688894523
0.693750	368677196.66913235	533258.00505263056
0.700000	370804570.61053526	519820.9651950433
0.706250	377562587.77351803	664395.1945163327
0.712500	384460987.74879593	620352.70555424888
0.718750	390951177.44984198	577812.70120921091
0.725000	396540152.7087062	537824.30532689311
0.731250	400658462.07882768	501234.46685507445
0.737500	402673799.10136223	468751.06881958497
0.743750	401915608.15969723	441027.12409263034
0.750000	397710703.9221555	418735.50598414813
0.756250	394651972.56562227	491394.47115022683
0.762500	387456644.68807662	475452.2497773497
0.768750	376791882.91286588	462198.5887943501
0.775000	363366775.28160179	452119.9013191167
0.781250	347877920.61738741	445343.74231925502
0.787500	330963241.2923978	441560.26235102181
0.793750	313167796.35688984	440044.42287116853
0.800000	294921595.02963793	439772.36950766994
0.806250	279457836.37542671	415360.55450992094
0.812500	263620952.4947021	403811.55388915952
0.818750	248199519.16823393	393691.98776020599
0.825000	233996621.80695766	384381.79086379887
0.831250	221574535.21796989	375365.0130949461
0.837500	211227563.5206297	366289.52365460573
0.843750	202972897.39912015	356954.71609855484
0.850000	196559488.69147217	347244.48814562918
0.856250	193594293.84034261	276068.56712397613
0.862500	191810861.69005102	270035.91847213008
0.868750	191185740.9584116	263497.29662438971
0.875000	191589293.31766811	257519.62807484329
0.881250	192746278.74503839	253159.34553287367
0.887500	194245949.98556423	251108.04841261799
0.893750	195562130.34020931	251411.87116694235
0.900000	196083274.77920464	253390.1996611139
0.906250	197857798.56270885	237939.81964090466
0.912500	198081707.89021215	225740.70599881001
0.918750	196860152.30564594	214558.86509316717
0.925000	194242639.50813553	203827.74853211307
0.931250	190289159.80099842	193190.19379925125
0.937500	185059034.4424566	182566.96701987871
0.943750	178604518.04697165	172165.97162799636
0.950000	170969155.03720269	162439.09820107993
0.956250	164313862.44264838	87241.342152156547
0.962500	156235444.88292572	92332.706808838033
0.968750	147339223.95063549	99373.794026906675
0.975000	138117044.32891443	107396.20019133955
0.981250	128990605.17453751	115404.82707069447
0.987500	120288520.35407262	122545.23466941298
0.993750	112231502.54837069	128167.35908708045
1.000000	104925671.22539015	131832.80532114979
1.006250	99323031.385610849	143252.50894632837
1.012500	94355267.712467164	142316.30016474001
1.018750	90140741.334542543	140571.11606087096
1.025000	86819981.337571815	138218.03844442649
1.031250	84425237.903248698	135563.12119471535
1.037500	82878799.26375474	132920.31196182559
1.043750	81998375.209286451	130519.42369850349
1.050000	81509547.148583204	128436.84905147551
1.056250	82112329.319806546	104961.9776509223
1.062500	82707895.555203542	97740.938268452679
1.068750	83214169.917544842	90936.738600650729
1.075000	83549777.258329585	84749.869164202159
1.081250	83615529.410500631	79306.563226184779
1.087500	83295457.298141986	74648.735729696185
1.093750	82460607.115610868	70738.898892032346
1.100000	80975600.576103464	67479.703742892569
1.106250	79776236.429482788	102075.71694420205
1.112500	77747092.46995227	97592.768644788259
1.118750	75009617.16400747	92807.155737097346
1.125000	71720944.516170919	88137.043001804195
1.131250	68034180.777264208	83915.175839132993
1.137500	64087959.002221607	80334.185080807772
1.143750	59998810.510354973	77416.569356006614
1.150000	55856353.248071969	75024.936279750662
1.156250	52341962.959927447	56171.039901930177
1.162500	48691305.370389678	56380.042458359916
1.168750	45108128.93930465	56181.82200843074
1.175000	41761147.966100395	55664.146111936629
1.181250	38773314.663274251	54964.160584606558
1.187500	36215796.90057566	54219.787488652932
1.193750	34105581.220612563	53533.757489372394
1.200000	32406701.125878967	52950.097027414362
1.206250	31375097.06838702	70821.909585381523
1.212500	30612754.560052849	69940.367597441757
1.218750	30100880.583226968	69037.686736475589
1.225000	29826185.360613368	68167.408546272811
1.231250	29749016.891885478	67357.833145822486
1.237500	29804410.763450105	66598.240731498634
1.243750	29905039.922623165	65835.201487499216
1.250000	29946064.416217495	64978.859381717899
1.256250	30222078.128704719	39909.250857702304
1.262500	30293880.796754193	40919.429609298764
1.268750	30155392.322337098	41416.673069048258
1.275000	29813034.490441889	41309.999259931377
1.281250	29275662.213744767	40593.917872215556
1.287500	28552228.631422717	39325.105224926854
1.293750	27650336.794977553	37601.479983801008
1.300000	26575677.941070799	35542.700753857993
1.306250	25655505.553201687	45796.279382108565
1.312500	24511509.749038476	42526.415299574881
1.318750	23223353.310519882	38880.62873598122
1.325000	21869166.183190621	35089.086605832483
1.331250	20518003.379960489	31374.402262672516
1.337500	19225825.578074954	27941.096701273833
1.343750	18032775.567740399	24960.711525443523
1.350000	16961750.552405376	22550.136530421965
1.356250	16186618.797915	27746.29756334909
1.362500	15473644.197524101	25230.180751580327
1.368750	14871260.904133927	22810.410175672074
1.375000	14404707.460347641	20733.703961897794
1.381250	14084103.010339269	19256.932057458671
1.387500	13903798.372003248	18568.003288478347
1.393750	13842761.475637376	18685.142111518657
1.400000	13865997.169159245	19425.615179299937
1.406250	14069042.488958126	21584.572743749406
1.412500	14292777.746760895	21963.618009329279
1.418750	14520893.845368296	22432.99244324887
1.425000	14738398.634129528	22939.443290631567
1.431250	14927945.466077831	23422.232263800059
1.437500	15069903.313365657	23819.308735779796
1.443750	15142806.310094228	24072.117077629089
1.450000	15124182.722537974	24128.798176619035
1.456250	15152272.016704947	24586.105393706508
1.462500	15059758.298358506	25107.328948184288
1.468750	14852604.936300207	25319.362788928778
1.475000	14544310.819822634	25232.704087820293
1.481250	14149377.916179944	24866.649024918777
1.487500	13682048.754030833	24247.360271200465
1.493750	13155362.719828092	23406.081584508265
1.500000	12580531.167154234	22377.378842846341
1.506250	12084764.711383987	19640.877635540797
1.512500	11528384.397304852	18739.980766257737
1.518750	10939408.611945476	17738.978465975717
1.525000	10340778.615939727	16668.813423235712
1.531250	9751552.0707096104	15559.253779353519
1.537500	9186057.8892692477	14438.827327496678
1.543750	8653434.9472316485	13334.297023020868
1.550000	8157554.6540185809	12269.415273127373
1.556250	7758189.2699676109	10506.745512450114
1.562500	7387260.5330923256	10109.258796068651
1.568750	7047840.4658748731	9801.4236712083639
1.575000	6745137.8735161107	9581.4161930279515
1.581250	6481062.7758289641	9438.8086866420999
1.587500	6254213.9916257653	9355.9363089632006
1.593750	6060079.5421023117	9310.1875296986254
1.600000	5891449.8732188661	9276.4289347603481
1.606250	5798357.1012488911	7266.3372493500519
1.612500	5715615.2604471873	6812.7062221322658
1.618750	5648550.9673576131	6392.9161942843421
1.625000	5597784.681885601	6015.0627387867626
1.631250	5562927.4343836065	5688.1561308857727
1.637500	5542440.3892329512	5419.0811373462157
1.643750	5533607.2852802165	5210.1538131324314
1.650000	5532619.7531282185	5057.9114099483122
1.656250	5593906.0433267597	8167.7870202106005
1.662500	5660234.3458658447	8176.1703865928966
1.668750	5735383.482258847	8094.2085333694349
1.675000	5821751.1162145827	7936.9401086691851
1.681250	5920098.7584444936	7724.329748349478
1.687500	6029327.1582174357	7479.9164028340847
1.693750	6146395.1514465474	7228.9661003487408
1.700000	6266381.9653083105	6995.9368719253989
1.706250	6450986.7458074857	11426.711128174142
1.712500	6635517.6578915538	11302.62472185831
1.718750	6821469.3039456783	11143.582419848564
1.725000	7007095.618320426	10961.786769552489
1.731250	7188837.2360378951	10768.669960328196
1.737500	7361351.9356932808	10574.141581845863
1.743750	7517676.4191870075	10385.815555031408
1.750000	7649519.4282874968	10208.308409931715
1.756250	7827188.3240849394	6157.0160464714763
1.762500	7982081.899720626	5947.2604301451056
1.768750	8110955.0164883183	5945.5345663271992
1.775000	8212638.3528194353	6153.8507904987755
1.781250	8285163.8902375428	6536.5953984465268
1.787500	8325791.4438352603	7035.1880736841476
1.793750	8331128.2960900981	7585.9079279942362
1.800000	8297341.9340191241	8130.7477749019927
1.806250	8311286.5829950497	13204.138856127176
1.812500	8282527.3153860467	13059.362379828417
1.818750	8223711.2043612627	12848.384604458824
1.825000	8140157.4388223263	12587.114258337489
1.831250	8036060.7857292788	12289.801646335245
1.837500	7914338.309784119	11967.632580404386
1.843750	7776586.7863877192	11627.568203089619
1.850000	7623150.8078701766	11271.653698441978
1.856250	7524103.4386057165	5530.806127013363
1.862500	7414681.0802279981	4752.6933594371139
1.868750	7302249.9620010499	4015.3924140334802
1.875000	7192998.7672304008	3451.8220624818628
1.881250	7090766.7885555029	3242.6623022004487
1.887500	6996940.9588340949	3500.1404499756977
1.893750	6910497.9953731205	4145.8199962297404
1.900000	6828191.6575062107	5010.5120263780818
1.906250	6813095.4070727052	8244.525500355252
1.912500	6802139.1190773249	7729.4296488844639
1.918750	6800506.4285062011	7306.0760604755869
1.925000	6809717.3525183471	6998.2141674436734
1.931250	6828873.0303297667	6813.7370481860999
1.937500	6854696.0287166936	6743.2125716458359
1.943750	6881711.8023142265	6762.952797511909
1.950000	6902571.3087103758	6841.3596072209539
1.956250	6978650.1040760372	8614.9339497504279
1.962500	7050214.4574813712	8427.1190369165852
1.968750	7116951.5943893697	8225.1332316894677
1.975000	7179168.2547181007	8042.3839017353057
1.981250	7235405.7400369346	7908.4898633902831
1.987500	7282439.3531499757	7843.9234241118857
1.993750	7315408.3013901683	7855.3511574135846
2.000000	7328076.0636240821	7933.6377496118557
2.006250	7395234.6613993468	12168.264024164684
2.012500	7439101.0742266448	12050.83952886668
2.018750	7466926.5354179237	11839.730623454714
2.025000	7481489.3092508223	11572.063326138359
2.031250	7483816.5885798577	11287.738367574168
2.037500	7473087.4430339728	11024.926127104582
2.043750	7446680.9214568939	10814.341657123314
2.050000	7400369.3085902883	10673.315686966211
2.056250	7400683.122622068	8735.5720055440343
2.062500	7386471.0356549649	8366.3764596605051
2.068750	7358219.7657605242	8003.7702085465817
2.075000	7319921.9018298881	7663.1379413697678
2.081250	7273546.2339460757	7356.9079020212366
2.087500	7218947.7247390868	7093.324478943101
2.093750	7153932.8296035947	6875.0759230858403
2.100000	7074480.1657792572	6698.1714694270722
2.106250	7048750.7996760774	8358.7382616275809
2.112500	7006314.4698322518	8642.8972190632012
2.118750	6954063.0838809256	8991.9525876408388
2.125000	6895987.9231334608	9378.4695741158903
2.131250	6834091.9984839242	9770.8362978522764
2.137500	6768304.5487318588	10137.382000557787
2.143750	6696544.1284844633	10448.896756019918
2.150000	6614930.2856381517	10679.817165536762
2.156250	6587435.7858859813	9819.4782105271443
2.162500	6545548.7049725624	10084.512270828731
2.168750	6497997.6480536535	10290.439273794129
2.175000	6448735.8794502486	10444.198184808603
2.181250	6399695.4791380987	10554.416430244441
2.187500	6350672.5807395997	10629.876647750567
2.193750	6299362.2964828294	10677.946898950857
2.200000	6241543.3291277904	10703.134435021992
2.206250	6235623.3449237961	6297.2859946576673
2.212500	6219930.0936426604	6550.5227560327621
2.218750	6199802.8604492079	6939.8998440286077
2.225000	6178025.9992121402	7419.7681592156732
2.231250	6155368.5580137204	7931.5372767621784
2.237500	6130499.8495446444	8416.2433538231726
2.243750	6100055.7695779763	8821.4383416039273
2.250000	6058855.8635221198	9103.9456334808146
2.256250	6065589.1665304843	5322.1784157726861
2.262500	6055974.4937706655	5553.5624795179492
2.268750	6035631.4011756573	5822.3999998968829
2.275000	6006704.6624702569	6098.7490509642748
2.281250	5969725.7318007369	6356.6414213245853
2.287500	5923546.3637727918	6575.5134654475432
2.293750	5865407.4076821879	6740.4077828723794
2.300000	5791142.7759380667	6841.6345185179962
2.306250	5749061.245798314	10469.142173862529
2.312500	5694442.2747807261	10134.09298840159
2.318750	5625374.9166917419	9748.565567496782
2.325000	5545574.7666413048	9320.0417617478233
2.331250	5457384.0248320019	8854.6540852624858
2.337500	5361643.0716473283	8357.9797952896606
2.343750	5257686.8722928585	7835.9566603377971
2.350000	5143466.2109902194	7295.7641061892364
2.356250	5070972.070443471	7787.8927382198508
2.362500	4982401.2992747147	7899.4671881575614
2.368750	4886804.8981441427	7911.4009217297953
2.375000	4788644.4532339368	7832.0284629519101
2.381250	4690768.9513600897	7671.9475300771455
2.387500	4594272.3919101944	7443.1755328346408
2.393750	4498479.8229587469	7158.2905483016175
2.400000	4401061.8015600089	6829.5754346269396
2.406250	4344008.2518628361	5273.1692463750223
2.412500	4280980.859976369	4850.8366418914193
2.418750	4217123.7552247038	4475.5544982306192
2.425000	4155114.3563361252	4176.4045151921537
2.431250	4096027.3718115105	3974.8623773602644
2.437500	4039262.4075689563	3878.2469650397152
2.443750	3982591.9573441199	3876.2764599382904
2.450000	3922329.7758463547	3944.0092443197245
