#List of files for average calculation
#C:\D+_tests\Symmetry\GPU\WH\Manual_Symmetry_Implicit_No_Charges_With_Hydration_Hybrid_VEGAS\Manual_Symmetry_Implicit_No_Charges_With_Hydration_Hybrid_VEGAS_1
#C:\D+_tests\Symmetry\GPU\WH\Manual_Symmetry_Implicit_No_Charges_With_Hydration_Hybrid_VEGAS\Manual_Symmetry_Implicit_No_Charges_With_Hydration_Hybrid_VEGAS_2
#C:\D+_tests\Symmetry\GPU\WH\Manual_Symmetry_Implicit_No_Charges_With_Hydration_Hybrid_VEGAS\Manual_Symmetry_Implicit_No_Charges_With_Hydration_Hybrid_VEGAS_3
#C:\D+_tests\Symmetry\GPU\WH\Manual_Symmetry_Implicit_No_Charges_With_Hydration_Hybrid_VEGAS\Manual_Symmetry_Implicit_No_Charges_With_Hydration_Hybrid_VEGAS_4
#C:\D+_tests\Symmetry\GPU\WH\Manual_Symmetry_Implicit_No_Charges_With_Hydration_Hybrid_VEGAS\Manual_Symmetry_Implicit_No_Charges_With_Hydration_Hybrid_VEGAS_5
#C:\D+_tests\Symmetry\GPU\WH\Manual_Symmetry_Implicit_No_Charges_With_Hydration_Hybrid_VEGAS\Manual_Symmetry_Implicit_No_Charges_With_Hydration_Hybrid_VEGAS_6
#C:\D+_tests\Symmetry\GPU\WH\Manual_Symmetry_Implicit_No_Charges_With_Hydration_Hybrid_VEGAS\Manual_Symmetry_Implicit_No_Charges_With_Hydration_Hybrid_VEGAS_7
#C:\D+_tests\Symmetry\GPU\WH\Manual_Symmetry_Implicit_No_Charges_With_Hydration_Hybrid_VEGAS\Manual_Symmetry_Implicit_No_Charges_With_Hydration_Hybrid_VEGAS_8
#C:\D+_tests\Symmetry\GPU\WH\Manual_Symmetry_Implicit_No_Charges_With_Hydration_Hybrid_VEGAS\Manual_Symmetry_Implicit_No_Charges_With_Hydration_Hybrid_VEGAS_9
#C:\D+_tests\Symmetry\GPU\WH\Manual_Symmetry_Implicit_No_Charges_With_Hydration_Hybrid_VEGAS\Manual_Symmetry_Implicit_No_Charges_With_Hydration_Hybrid_VEGAS_10
#Average Chi square (Sigma units): 1.5635948059551
#Sigma Chi square: 0.29701949519803
#Calculation was done on GPU
q [nm^-1]	Intensity [A.U]	Sigma [A.U]
0.000000	62833283368.106102	96880.196972079924
0.006250	62894043777.891983	139479.27610053599
0.012500	62828379919.552795	307056.77799339266
0.018750	62641939942.473732	713116.69841636415
0.025000	62338775165.515488	1740500.9474177647
0.031250	61923003728.220093	625897.66246053402
0.037500	61392650386.848862	738638.80586041452
0.043750	60748196466.459732	846006.04715607676
0.050000	59985942679.477859	7267367.6914939443
0.056250	59111229819.761864	1083141.3069046102
0.062500	58115648551.171608	1258938.4011159199
0.068750	57078722111.893143	1225653.1106806516
0.075000	56078512277.446129	1347277.8376413854
0.081250	54964035341.294968	3661060.2926418483
0.087500	53751724234.632103	1817655.4559766841
0.093750	52448798627.129929	4810711.3743490679
0.100000	51072056861.708366	7647137.5067775268
0.106250	49633047561.246056	3402701.0384771866
0.112500	48132827667.903725	8323631.4325406365
0.118750	46595213589.553238	3405572.5704904944
0.125000	45013525491.352531	3632099.8144240528
0.131250	43399511799.102127	3816229.2042389321
0.137500	41863547376.625839	3427674.7100492087
0.143750	40341773842.298531	6435899.3196999785
0.150000	38795777342.039177	13523070.287376393
0.156250	37243440819.299156	12923320.261597784
0.162500	35700232031.3806	7550949.7547858674
0.168750	34164284285.762016	4008452.5028993413
0.175000	32640619645.177013	10388659.356416939
0.181250	31148666648.579182	4740937.1062825015
0.187500	29679655859.840065	6868038.8950865129
0.193750	28246435863.438805	7199947.9443894168
0.200000	26853363525.279839	5146545.470118098
0.206250	25574701292.255699	5332138.4937688205
0.212500	24324692631.432266	7138024.1627123235
0.218750	23114270046.345814	7498764.4726931583
0.225000	21941760936.763172	5369323.1031104671
0.231250	20812263553.190338	6320084.4345358126
0.237500	19726927541.225357	5113344.9595725751
0.243750	18683596378.05378	8646592.0585302804
0.250000	17687999111.763374	4750733.18386898
0.256250	16736020437.149063	4659516.9797731703
0.262500	15829046347.995926	4726773.2470075833
0.268750	14975730816.790659	6839294.6482509617
0.275000	14187046170.57782	7012539.5368345268
0.281250	13435787169.836018	6224679.7458486082
0.287500	12721140542.681475	4758417.0112018194
0.293750	12041135530.581783	5617238.7745317649
0.300000	11397959527.097256	6008256.7904941412
0.306250	10787022891.235029	5506067.1456107907
0.312500	10207584715.063568	6155839.9704551995
0.318750	9660162569.9327145	5888158.8740298068
0.325000	9140393854.9344902	4883157.2101854272
0.331250	8648102781.4881287	4790352.6920040948
0.337500	8196767374.6621351	4148170.0635643271
0.343750	7769203502.2429686	4478973.2121292828
0.350000	7362988715.1232777	3421556.7983597405
0.356250	6974679290.1657152	3400853.6350038755
0.362500	6603682039.2440071	4304933.1539134933
0.368750	6251026679.6085529	3781958.816114008
0.375000	5913808948.0290661	3470215.6960463915
0.381250	5591938375.3139296	2923766.1602514996
0.387500	5283456729.4152393	2706389.5084322654
0.393750	4988264351.4003277	3027157.8489888399
0.400000	4705591082.1823177	2560616.4387608538
0.406250	4443145855.581646	2590579.230715381
0.412500	4191810070.3025122	2339912.0198088358
0.418750	3949575454.6633005	2104419.6753792004
0.425000	3716678990.8449798	1943204.9282987278
0.431250	3492478125.9797735	1558330.4056256248
0.437500	3277535529.9664493	1632567.8050326162
0.443750	3070907280.5120287	1877313.827828625
0.450000	2873820611.1109557	1471668.5720974803
0.456250	2685222942.4906864	1427145.1835886105
0.462500	2505178921.6552172	1361968.4953052697
0.468750	2334730182.9926305	1650178.1643735871
0.475000	2176061507.8374939	1811281.3094873854
0.481250	2025414727.9896438	1524345.2158972293
0.487500	1881991405.360883	1469894.6284860712
0.493750	1746169416.9489913	1446600.0567281379
0.500000	1618252190.7297475	1417147.0878099543
0.506250	1497900026.4735718	1297901.8061961571
0.512500	1385287084.8695629	1235885.7159443595
0.518750	1280000527.3783629	1117190.6886759137
0.525000	1182532829.7684426	881103.51171118685
0.531250	1091956362.037035	859046.44500306831
0.537500	1010335769.7583954	767508.93121104327
0.543750	934856762.7024343	705948.48600595829
0.550000	865286317.51019514	694133.90226317802
0.556250	801475210.63114321	603081.61517822021
0.562500	743131181.90137768	537033.54508632899
0.568750	690027519.52490199	549159.45646115928
0.575000	641782626.85044384	453108.10356448067
0.581250	597954399.54766822	393000.81905399798
0.587500	558373306.1105665	386319.50487229915
0.593750	522614391.25319231	403934.12427079328
0.600000	490343263.13664138	382109.92214502522
0.606250	461964951.62328374	441008.56717986922
0.612500	436499362.41440523	420501.61702065106
0.618750	413338057.16926247	376488.78750444914
0.625000	392197323.23606348	416018.67045470269
0.631250	372749410.43740201	397489.19792474399
0.637500	354846616.10788888	379037.64387285989
0.643750	338325178.68614256	399528.23251493281
0.650000	322901244.48867643	421380.17227180093
0.656250	308509071.7962687	426745.65327433334
0.662500	295001863.22013193	425180.06151298439
0.668750	282694348.55921125	329528.61517057364
0.675000	271326990.33129442	277867.7649431075
0.681250	260279365.0205304	271136.75713198946
0.687500	249359526.92957488	278584.28896494006
0.693750	238705894.40224233	255864.75825587334
0.700000	228193031.69763961	215868.57856981494
0.706250	217943742.34880424	234074.44947661628
0.712500	207958187.83252424	228626.13427769757
0.718750	198251039.29313311	242416.92575615435
0.725000	188960650.31157273	189528.30982269091
0.731250	180104330.71918702	205413.22247310184
0.737500	172118524.58381623	222991.06781554682
0.743750	164433775.26101401	215606.28710992276
0.750000	156948315.02766696	215431.43432995622
0.756250	149750965.46883065	190187.95536975231
0.762500	142881420.60085851	194830.77539855847
0.768750	136456368.46784979	156922.36081094507
0.775000	130477243.0012618	138189.38954463229
0.781250	124987504.01094484	127535.6990037333
0.787500	119994116.13046566	130617.59776747864
0.793750	115511086.29282483	130333.53580435534
0.800000	111492495.46626611	144595.64341517782
0.806250	108039674.77210633	153570.99229913842
0.812500	105124001.42654562	146162.78645881536
0.818750	102554750.97856042	164702.60378110723
0.825000	100309043.74712238	151896.53835191848
0.831250	98383521.198146179	146875.36493099359
0.837500	96733738.290066481	148669.66810707125
0.843750	95324265.575969964	150655.17966772383
0.850000	94102307.198889256	161581.78283935078
0.856250	93003708.383953661	158031.14308529769
0.862500	91897173.766050294	149053.97247204435
0.868750	90979965.875183403	126700.37951619405
0.875000	90149785.753250718	123114.59889476324
0.881250	89272755.542150095	118755.98835984795
0.887500	88335616.195768222	118857.79076769331
0.893750	87307443.400656268	116540.96033961764
0.900000	86170122.928875476	115483.37197883002
0.906250	84883759.060057923	119447.31674665846
0.912500	83432378.095160365	118974.3342913528
0.918750	81785509.9402733	120208.72451308218
0.925000	79918394.155340895	119593.33536489356
0.931250	77835225.463678032	123987.190271424
0.937500	75815781.325760558	117561.08628976133
0.943750	73623192.78140153	122392.83162297578
0.950000	71301023.314062476	100520.16332157831
0.956250	68858158.268537939	93099.706708693964
0.962500	66328989.420414627	86554.311746402236
0.968750	63737797.279334411	80677.700661683513
0.975000	61108004.598067984	76378.134661454038
0.981250	58458530.297903642	64136.681934182256
0.987500	55830732.916726254	71532.860948138987
0.993750	53224306.247086957	75435.259496654005
1.000000	50701235.143515721	70671.737170008768
1.006250	48306317.118472502	94547.541448032149
1.012500	46117767.217982605	94669.423646792609
1.018750	44071567.029040858	100445.56103706977
1.025000	42167871.296903618	98411.25136898573
1.031250	40468008.992266767	101762.36015898711
1.037500	38934193.050725505	99321.897898637966
1.043750	37604766.740964279	98444.572829380195
1.050000	36465530.682921655	96533.917795988848
1.056250	35519296.994426697	93976.983434527632
1.062500	34765763.485923484	92760.710344934239
1.068750	34238489.051106788	47239.124607505946
1.075000	33872139.512860097	43727.482345496828
1.081250	33655720.802949496	41313.406598918453
1.087500	33574684.08332359	40141.014391392055
1.093750	33611836.424801543	40240.461497797412
1.100000	33750592.403203934	39070.384239996347
1.106250	33962427.198187418	43729.96138200345
1.112500	34235216.263596945	46787.901058034811
1.118750	34537411.104472473	50045.447911987809
1.125000	34851316.232699059	53680.758414177799
1.131250	35150683.224749722	57390.440529108411
1.137500	35398489.25350374	62238.825721300309
1.143750	35680825.927964576	62283.773232575033
1.150000	35894651.453359038	61847.657725727571
1.156250	36027288.563048169	60951.819671800644
1.162500	36068319.92918212	59632.782007265952
1.168750	36009396.370956108	57940.017568202267
1.175000	35844061.115409747	55935.669223451274
1.181250	35567602.296894349	53694.192908058329
1.187500	35177037.236476704	51303.308937718532
1.193750	34670338.955409408	48773.190453825686
1.200000	34050707.137195393	46494.548090702767
1.206250	33385439.1223628	75083.794504469333
1.212500	32620898.704275824	70960.001414174461
1.218750	31756279.954134893	66715.998677310592
1.225000	30801472.929713219	61349.371044031686
1.231250	29784405.968089294	58331.192139639512
1.237500	28706909.18148132	54396.720916282349
1.243750	27588143.052179772	50745.67976089404
1.250000	26436563.304594748	49088.332670203126
1.256250	25281617.988034651	42583.263859236205
1.262500	24128128.555386871	41940.743574352229
1.268750	23021408.002486385	70120.00997586071
1.275000	21926320.695249971	67565.601422411142
1.281250	20858286.585974798	64592.371919365192
1.287500	19830877.597487263	61197.032764013755
1.293750	18855885.037019722	57442.315841307332
1.300000	17942093.977080874	53368.45219625091
1.306250	17096641.825434566	49098.672945762868
1.312500	16324628.48036184	44806.059461898993
1.318750	15629314.464947652	40741.504845155891
1.325000	15012218.382700916	37249.283864622957
1.331250	14473151.261749486	34757.1472194538
1.337500	14012241.413738674	24970.456364197886
1.343750	13629142.543640589	24094.517909958562
1.350000	13311652.91622318	23893.324448005158
1.356250	13054672.217005929	24395.863547211087
1.362500	12852361.059076674	25541.599085744427
1.368750	12698440.442834655	27205.628338949697
1.375000	12586418.494267466	29238.616711653827
1.381250	12509647.359689217	31497.309557819517
1.387500	12461284.244852044	33858.371481175789
1.393750	12434134.905770306	36219.684676934688
1.400000	12420421.53661819	38496.169571360813
1.406250	12426479.620334547	18961.042701642433
1.412500	12449246.31793002	19567.706808700321
1.418750	12459086.209187355	20155.184861698846
1.425000	12454532.998407327	19637.14857888707
1.431250	12427443.085623641	21137.412173176956
1.437500	12381712.428304598	21514.135337913754
1.443750	12315544.267573964	21860.92773622353
1.450000	12229217.941483978	22168.444451052022
1.456250	12123238.063208062	22481.268852153506
1.462500	11997449.916536277	22688.233933085619
1.468750	11880329.599401634	28363.372738212602
1.475000	11771167.709471498	27334.943107375198
1.481250	11627910.442352131	26380.083729322221
1.487500	11455693.078121657	25516.149693729061
1.493750	11260848.091002192	24759.774506481011
1.500000	11050325.601946842	24125.485613702331
1.506250	10831073.37644342	23624.327443133818
1.512500	10609470.136607628	23262.669557022182
1.518750	10390841.241810519	23041.890470986396
1.525000	10179068.656950185	22958.024668478836
1.531250	9976390.3478871826	23002.279903345592
1.537500	9832382.8597305603	17548.032327607903
1.543750	9700618.5127433632	17332.673423638447
1.550000	9569723.3788081445	16686.181015169816
1.556250	9447219.8798565995	17012.059939581057
1.562500	9337364.060366204	17590.077106153865
1.568750	9246853.1878361944	16900.299614873318
1.575000	9177522.9251313135	16943.406230147953
1.581250	9131661.4330467079	17062.176176515834
1.587500	9109344.43796416	17263.024461746129
1.593750	9109016.7972734571	17551.28037621254
1.600000	9127677.8172516376	17930.842580449462
1.606250	9217667.0967745595	21390.091520522477
1.612500	9311958.6919205356	20544.62929695088
1.618750	9416131.3849583734	19808.952430731028
1.625000	9530935.7420796175	19216.571671150479
1.631250	9656102.7900935058	18828.209390938697
1.637500	9790779.5718290471	18520.695144911762
1.643750	9932494.3393760882	18402.464136594906
1.650000	10078329.156943252	18400.27531688075
1.656250	10224463.778473651	18448.133612086873
1.662500	10367038.308017876	18573.265846813541
1.668750	10494457.085455291	26929.08974894604
1.675000	10662654.402368909	27913.699043302833
1.681250	10820224.415142657	28849.340996509873
1.687500	10967225.563505063	29738.58119480305
1.693750	11103404.276023824	30584.558785166675
1.700000	11228198.669561045	31390.42599194936
1.706250	11340796.813739538	32158.766262707046
1.712500	11440240.626528135	32891.317305733275
1.718750	11525526.873905312	33588.580909437245
1.725000	11595733.104823947	34249.784535733983
1.731250	11650120.970073972	34872.64601235633
1.737500	11719933.004078208	22464.582270176757
1.743750	11786502.753984792	21911.372183593132
1.750000	11840544.91465782	21373.113512703698
1.756250	11883597.93622376	20870.517374981464
1.762500	11916948.568260303	20421.836890543906
1.768750	11941656.310187681	20042.820510252302
1.775000	11958585.057074569	19746.591600587402
1.781250	11968427.250319608	19543.872289464744
1.787500	11971720.910989124	19442.993345439558
1.793750	11968852.389467606	19450.542870079291
1.800000	11960045.695451314	19571.653576151264
1.806250	11994104.747105237	26417.590332062446
1.812500	12014297.167657221	26393.111458396656
1.818750	12032571.247681718	26410.014016982346
1.825000	12049853.599068779	26516.45827601539
1.831250	12067379.33033691	26659.341152049237
1.837500	12085208.015573096	26931.602390439486
1.843750	12103712.435678845	27320.158297739537
1.850000	12122818.300926778	27824.769167561313
1.856250	12142181.518556811	28454.709038386372
1.862500	12161087.575359123	29181.456188539625
1.868750	12170931.215566622	23940.29983473332
1.875000	12227706.22787936	24469.790483464923
1.881250	12284188.009773619	25065.809614061745
1.887500	12340583.820393249	25704.094773727102
1.893750	12396876.102172257	26472.83934089819
1.900000	12453074.709258178	27009.39697175031
1.906250	12508639.140530832	27631.678663366449
1.912500	12562999.847646121	28208.545091930944
1.918750	12615263.743403267	28725.238900159049
1.925000	12664256.241959298	29170.453632284323
1.931250	12708527.164323194	29536.540861741654
1.937500	12770669.494724957	46991.446597198483
1.943750	12847958.85155493	47583.516962098947
1.950000	12920723.812375212	48207.036596514699
1.956250	12989574.56928282	48905.164199196639
1.962500	13055109.35938842	49512.970664406355
1.968750	13117468.560317049	50177.089764987839
1.975000	13176668.402338687	50835.648193017907
1.981250	13232374.193112593	51478.260986514149
1.987500	13283916.387999222	52093.846166964868
1.993750	13330290.915135326	52670.618344484021
2.000000	13370167.248115841	53196.080977800542
2.006250	13493809.425752545	44598.472586634081
2.012500	13572068.053447941	44817.127728070373
2.018750	13645321.564134952	45036.777676318598
2.025000	13713794.544692431	45131.218393598421
2.031250	13778356.904869786	45346.819555591144
2.037500	13838373.011280769	45473.076604745635
2.043750	13893482.193111086	45587.186575574357
2.050000	13942718.401918739	45691.93580130404
2.056250	13984919.462392906	45515.455308075296
2.062500	14017681.546591377	45873.528180137291
2.068750	14025468.629801387	25440.862767740036
2.075000	14092010.10253856	24863.782872360913
2.081250	14148507.38478981	24315.04620824031
2.087500	14195483.409470577	23812.595391988347
2.093750	14232939.58507218	23233.541605940747
2.100000	14261246.350997608	23084.849552447726
2.106250	14279365.725853294	22898.265369882236
2.112500	14286594.827326741	22846.47865622236
2.118750	14281650.17029829	23022.55595298142
2.125000	14263188.007279456	23146.581079770727
2.131250	14229203.722802674	23477.960741388997
2.137500	14212213.483003855	46393.829522041415
2.143750	14205002.75231969	48056.053168750601
2.150000	14181831.1677448	49703.32135187227
2.156250	14143453.198052227	51318.095484456288
2.162500	14090386.325557852	52883.793218876322
2.168750	14022888.26071387	54384.707721268016
2.175000	13940813.418080559	55718.890641015314
2.181250	13844301.643381368	57133.572075267482
2.187500	13732398.091405883	58353.72182063877
2.193750	13604470.593234515	59452.871192260041
2.200000	13459547.996843627	60417.029257649425
2.206250	13359288.066029565	35697.527990048649
2.212500	13240377.576598335	35936.226878330242
2.218750	13106501.162528154	36138.409252247082
2.225000	12958515.481925895	36032.497129718242
2.231250	12799586.193403114	36591.80237958832
2.237500	12629050.927820321	36801.798954246377
2.243750	12448179.966147874	36985.852727139514
2.250000	12257256.826970052	37113.394767003163
2.256250	12056406.858312683	37197.439655181894
2.262500	11845732.524032369	37258.186640180975
2.268750	11653659.560394088	47176.598260983257
2.275000	11472925.711427387	46748.714507868681
2.281250	11282340.00008579	46273.510189870685
2.287500	11083826.783878872	45753.75980331804
2.293750	10878938.913217667	45193.032354588096
2.300000	10668858.021619925	44595.458157264329
2.306250	10454332.565137139	43965.427676186424
2.312500	10235754.05403501	43307.130937002483
2.318750	10013130.033641038	42623.750101469595
2.325000	9786155.0827944614	41917.043933415247
2.331250	9554300.4117119871	41186.69070271837
2.337500	9336221.6042121984	28701.414562679449
2.343750	9134777.6600759253	28541.957608697132
2.350000	8928639.8816647194	28504.551021426345
2.356250	8719188.5012047701	28513.241155519056
2.362500	8507081.1068092082	28701.821071370017
2.368750	8293195.8400338115	28879.287399988429
2.375000	8077754.5338381771	29101.292896447299
2.381250	7860689.2150620986	29234.237907513962
2.387500	7641844.6947304429	29349.036538964443
2.393750	7420841.9577814639	29383.560449808476
2.400000	7197200.1815122943	29313.307224510532
2.406250	6990002.9888326656	25351.061336249011
2.412500	6792361.5788949085	24776.54998673591
2.418750	6592987.602980162	24115.064080365701
2.425000	6392922.6636072136	23382.219358804545
