#List of files for average calculation
#Z:\run\3Shells_cylinder_MC\3Shells_cylinder_MC_1
#Z:\run\3Shells_cylinder_MC\3Shells_cylinder_MC_2
#Z:\run\3Shells_cylinder_MC\3Shells_cylinder_MC_3
#Z:\run\3Shells_cylinder_MC\3Shells_cylinder_MC_4
#Z:\run\3Shells_cylinder_MC\3Shells_cylinder_MC_5
#Z:\run\3Shells_cylinder_MC\3Shells_cylinder_MC_6
#Z:\run\3Shells_cylinder_MC\3Shells_cylinder_MC_7
#Z:\run\3Shells_cylinder_MC\3Shells_cylinder_MC_8
#Z:\run\3Shells_cylinder_MC\3Shells_cylinder_MC_9
#Z:\run\3Shells_cylinder_MC\3Shells_cylinder_MC_10
#Average Chi square (Sigma units): 1.6077566413342
#Sigma Chi square: 0.26260693177427
#Calculation was done on GPU
q [nm^-1]	Intensity [A.U]	Sigma [A.U]
0.000000	3574187420.4544611	5.0263049764130585e-007
0.006250	3574696999.2951822	9499.6194615436543
0.012500	3573682702.7771988	13067.956645503444
0.018750	3571154457.7424912	12205.074129050832
0.025000	3567123207.0031571	16404.96869824142
0.031250	3561600914.5557289	34938.475469250254
0.037500	3554600574.6679144	65232.915507404221
0.043750	3546136224.8379464	106355.47951093859
0.050000	3536222962.6263685	158572.33177866953
0.056250	3524876966.3603759	222408.15457466213
0.062500	3512115519.7106247	298449.91855397593
0.068750	3498515496.4827447	211180.64446143483
0.075000	3485399367.9339461	261202.9889938276
0.081250	3470863889.5467596	317970.07564042805
0.087500	3454933114.4879341	381009.39427238348
0.093750	3437631914.7827559	449833.30452427338
0.100000	3418985911.0196528	523946.40480817208
0.106250	3399021405.5898695	602849.4758804685
0.112500	3377765319.4624119	686041.78984975733
0.118750	3355245132.4939671	773022.65966157825
0.125000	3331488827.2741041	863292.64011341473
0.131250	3306524836.5054941	956354.57106838061
0.137500	3282461330.5226955	563477.45220865693
0.143750	3257348629.8486156	612284.73886941839
0.150000	3231039041.0871787	662845.73345661722
0.156250	3203575802.3891902	714984.86357808765
0.162500	3175002505.3201332	768526.72283447965
0.168750	3145363037.7569776	823296.24928933603
0.175000	3114701528.0916967	879119.05949181772
0.181250	3083062290.7414064	935821.86848731816
0.187500	3050489772.9651923	993232.95214159333
0.193750	3017028502.9875188	1051182.6245298176
0.200000	2982723039.4282484	1109503.7143498242
0.206250	2948969113.4358797	818099.08584771585
0.212500	2914761190.3054037	858588.94543960819
0.218750	2879716858.028924	899439.62035072118
0.225000	2843888153.5786777	940547.65658809908
0.231250	2807326791.3417559	981811.1939357107
0.237500	2770084097.8085942	1023130.1428732125
0.243750	2732210948.5926161	1064406.3591139182
0.250000	2693757707.7814498	1105543.8136586268
0.256250	2654774169.6197553	1146448.7574956762
0.262500	2615309502.5231824	1187029.879677743
0.268750	2576577693.5874033	1699448.0184692761
0.275000	2537615836.2543235	1752024.0033555119
0.281250	2498171858.1744981	1803933.0565103381
0.287500	2458299498.8148198	1855019.386350865
0.293750	2418051591.0429521	1905133.0578049803
0.300000	2377480000.8252039	1954130.2610333457
0.306250	2336635570.0817199	2001873.5613421795
0.312500	2295568062.6993346	2048232.1298566095
0.318750	2254326113.7017922	2093081.9548963434
0.325000	2212957181.5776315	2136306.033659054
0.331250	2171507503.7654305	2177794.5442087217
0.337500	2129894874.3613625	2143683.2617711346
0.343750	2089201830.8250394	2182334.065576124
0.350000	2048422169.2676804	2219439.7802560041
0.356250	2007603796.6121573	2254891.445482153
0.362500	1966793212.2206969	2288587.3232271825
0.368750	1926035465.712069	2320433.0322863054
0.375000	1885374118.3876557	2350341.663333287
0.381250	1844851208.2661996	2378233.8739838726
0.387500	1804507218.7274308	2404037.9637713572
0.393750	1764381050.7643368	2427689.9287640559
0.400000	1724509998.8443959	2449133.4959457847
0.406250	1684901046.8827453	1498901.195387241
0.412500	1646014031.3068793	1513458.9941401815
0.418750	1607367379.8131304	1526871.1334864413
0.425000	1568997739.6829827	1539104.4349746495
0.431250	1530940105.5753682	1550129.4167526634
0.437500	1493227800.7674899	1559920.2940814504
0.443750	1455892461.9755325	1568454.9725939569
0.450000	1418964027.75524	1575715.0339832965
0.456250	1382470730.4823766	1581685.7138393328
0.462500	1346439091.9130323	1586355.8713298775
0.468750	1311767891.0902708	2016312.1944559854
0.475000	1276890309.8184614	2014070.3064677464
0.481250	1242449359.2965453	2010139.1050290756
0.487500	1208469490.7804737	2004523.7670134048
0.493750	1174973547.1770978	1997234.3030655445
0.500000	1141982763.3918633	1988285.4716285118
0.506250	1109516769.7800212	1977696.6825504792
0.512500	1077593598.7015574	1965491.8901375367
0.518750	1046229694.1796992	1951699.4753637619
0.525000	1015439924.6630604	1936352.1173113964
0.531250	985237598.89136827	1919486.6537149302
0.537500	954833761.14800203	1704220.1075112179
0.543750	925792907.50121057	1688691.7118907541
0.550000	897308533.42777467	1671898.5205841723
0.556250	869391497.42151642	1653881.9787242087
0.562500	842051315.38807833	1634686.0333974238
0.568750	815296177.41739917	1614357.018351696
0.575000	789132966.90676761	1592943.5326425079
0.581250	763567282.03436387	1570496.3129606345
0.587500	738603459.58346176	1547068.099814337
0.593750	714244601.11710739	1522713.4974569136
0.600000	690492601.50342607	1497488.8276219722
0.606250	666367042.11649144	1819793.6394210442
0.612500	643697224.34956813	1788422.6452539214
0.618750	621598754.6197536	1756079.4668811406
0.625000	600071490.03211451	1722829.8261373015
0.631250	579114366.31794345	1688740.6394221217
0.637500	558725421.69080675	1653879.884158876
0.643750	538901822.21990085	1618316.4611620207
0.650000	519639888.72066939	1582120.0529415463
0.656250	500935125.16271859	1545360.9777839843
0.662500	482782248.59506083	1508110.0398159586
0.668750	465736437.14412308	1151161.2632748347
0.675000	448512143.70394266	1124458.9875224466
0.681250	431803526.99768418	1097446.4487985903
0.687500	415603960.99605894	1070175.435268471
0.693750	399906336.26625198	1042697.0528904287
0.700000	384703080.52922326	1015061.6478577682
0.706250	369986180.02534652	987318.72773680103
0.712500	355747201.68834698	959516.8812837397
0.718750	341977316.12756079	931703.69691127329
0.725000	328667321.41846007	903925.67983005743
0.731250	315807667.70153618	876228.16793778189
0.737500	303563036.11808223	447717.38463841716
0.743750	291450987.87346822	433303.94449474785
0.750000	279755602.56881398	418998.99813531857
0.756250	268466976.57017398	404823.02928153146
0.762500	257575120.08260554	390795.64704229764
0.768750	247069968.80385265	376935.56485771964
0.775000	236941395.94740206	363260.57849837048
0.781250	227179224.63484025	349787.54305300972
0.787500	217773240.65758485	336532.34897187073
0.793750	208713205.60793921	323509.8970880477
0.800000	199988870.37948182	310734.07274358196
0.806250	191115281.21043903	410368.18880068796
0.812500	182981195.81156641	393574.37037008745
0.818750	175153822.67333284	377052.92801198689
0.825000	167623325.35257992	360822.44558037567
0.831250	160380047.01626953	344900.18807330582
0.837500	153414510.05459559	329302.11669623543
0.843750	146717415.93588239	314042.90377647558
0.850000	140279645.303289	299135.94748862984
0.856250	134092258.31330235	284593.3864313169
0.862500	128146495.21603766	270426.1140160737
0.868750	122434574.04736301	141765.29286581234
0.875000	116922471.92272611	135573.54119506592
0.881250	111628668.49384478	129658.66569204925
0.887500	106545156.51328607	124017.54605256741
0.893750	101664230.757936	118645.89488306807
0.900000	96978476.24004215	113538.30033212688
0.906250	92480756.792592883	108688.27744957266
0.912500	88164204.029075295	104088.32978862168
0.918750	84022206.677576497	99730.022490535266
0.925000	80048400.289242625	95604.067630614751
0.931250	76236657.321100891	91700.422121687574
0.937500	72609064.594270259	73849.350266422116
0.943750	69107883.126579821	72402.846249923416
0.950000	65751394.499572538	71605.74051868981
0.956250	62534349.398022458	71330.563669760188
0.962500	59451788.427807197	71450.736005852654
0.968750	56499023.107701361	71848.087781671275
0.975000	53671617.509015806	72417.662505088068
0.981250	50965370.543089494	73069.92048501801
0.987500	48376298.89662189	73730.966674620155
0.993750	45900620.614857212	74341.536427543222
1.000000	43534739.33261317	74855.353923441362
1.006250	41312547.226606563	40562.992990975079
1.012500	39174988.783794768	38514.158447122354
1.018750	37134759.085249126	36923.39602188678
1.025000	35188979.663140647	35745.409230182711
1.031250	33334968.179681681	34924.081996991088
1.037500	31570217.478530817	34396.486693831626
1.043750	29892375.560689438	34097.604928685811
1.050000	28299226.484885104	33964.689038022145
1.056250	26788672.192438673	33940.526117908194
1.062500	25358715.256622873	33975.361934954366
1.068750	23987184.826914903	41174.00206869276
1.075000	22738353.234151967	39863.319512521106
1.081250	21560955.833860569	38574.802847052808
1.087500	20453418.730801731	37310.73384591518
1.093750	19414267.513058726	36073.511209160897
1.100000	18442107.999990009	34865.632808921626
1.106250	17535608.083362047	33689.683393363091
1.112500	16693480.66166405	32548.327379143149
1.118750	15914467.667604947	31444.306125679377
1.125000	15197325.188788736	30380.438767683001
1.131250	14540809.681573313	29359.625334138582
1.137500	14002447.440542484	50202.326763994075
1.143750	13486553.078589162	48204.944813887829
1.150000	13024158.707530748	46139.437817748796
1.156250	12614217.096396122	44022.973569995462
1.162500	12255684.734253451	41873.3277573128
1.168750	11947508.153693842	39709.0732463526
1.175000	11688611.356865577	37549.830626452713
1.181250	11477884.344056018	35416.583406453588
1.187500	11314172.744824683	33332.053274450896
1.193750	11196268.551684448	31321.113237166122
1.200000	11122901.956332484	29411.182834463365
1.206250	11092927.170002019	15318.454907625564
1.212500	11131955.617165931	14635.010018686093
1.218750	11209690.250551317	14198.647209513339
1.225000	11324912.643782008	14059.308007553587
1.231250	11476362.178934529	14249.196127041641
1.237500	11662728.61796217	14775.130291126019
1.243750	11882645.630248943	15618.558962019804
1.250000	12134685.276297744	16742.938695643457
1.256250	12417353.447548907	18103.734719975928
1.262500	12729086.262330633	19656.456331545432
1.268750	13096549.345845373	29996.797846958274
1.275000	13495306.821938565	32333.121334731546
1.281250	13917913.879162069	34782.380086488309
1.287500	14362836.636049489	37306.66130021945
1.293750	14828506.102030519	39876.089884752691
1.300000	15313314.904870475	42467.100798575157
1.306250	15815614.733440742	45061.016730234551
1.312500	16333714.495821044	47642.939257125865
1.318750	16865879.192731239	50200.905797043015
1.325000	17410329.506293286	52725.25452448889
1.331250	17965242.104129739	55208.145914619723
1.337500	18574074.567226607	32042.907561033378
1.343750	19187544.85279426	33844.190201586571
1.350000	19807044.945784561	35625.120453985357
1.356250	20430877.537278879	37380.740830493713
1.362500	21057341.870871425	39106.63255255187
1.368750	21684733.224816613	40798.811064718335
1.375000	22311342.855627984	42453.648206271653
1.381250	22935458.403118845	44067.813973527795
1.387500	23555364.756890342	45638.232911746774
1.393750	24169345.384265151	47162.05159689382
1.400000	24775684.11966671	48636.614674152515
1.406250	25383503.040683173	43959.990494294339
1.412500	26020138.279740084	44937.281808616171
1.418750	26645517.471600674	45874.653229772644
1.425000	27258193.59774236	46771.898102165687
1.431250	27856756.381522864	47628.804037019538
1.437500	28439832.08861769	48445.147546305023
1.443750	29006083.587649398	49220.692219293051
1.450000	29554210.671018858	49955.190010355094
1.456250	30082950.635933958	50648.385271534622
1.462500	30591079.125635754	51300.021209380036
1.468750	31090210.337841094	70417.044332869307
1.475000	31610441.110055972	71698.092340987132
1.481250	32107182.760377061	72918.0321242387
1.487500	32579551.893065643	74076.613029085143
1.493750	33026729.999616932	75173.624598226626
1.500000	33447961.818132598	76208.896870809753
1.506250	33842553.842252508	77182.300936478918
1.512500	34209872.979648851	78093.749683821166
1.518750	34549345.360081293	78943.198698784254
1.525000	34860455.293010667	79730.6472669551
1.531250	35142744.374776565	80456.139445498658
1.537500	35328861.325347856	83486.79001939646
1.543750	35609634.163711675	83983.359734542581
1.550000	35859846.134367995	84407.876751529213
1.556250	36079414.156990722	84760.965949026591
1.562500	36268323.383883402	85043.404427956106
1.568750	36426623.846514612	85256.114087887399
1.575000	36554427.232128501	85400.153905624291
1.581250	36651903.790425152	85476.711959799359
1.587500	36719279.370320775	85487.097237343929
1.593750	36756832.586779192	85432.731261138135
1.600000	36764892.117716536	85315.139569258055
1.606250	36872305.085919738	126013.7926116866
1.612500	36874678.195574477	126119.3623933622
1.618750	36846636.734148398	126142.32450394657
1.625000	36788840.984661981	126083.29482774601
1.631250	36701999.322390594	125942.99788070447
1.637500	36586863.648905471	125722.26230042028
1.643750	36444224.997920796	125422.01626931757
1.650000	36274909.312947832	125043.28290461261
1.656250	36079773.396746404	124587.17565275289
1.662500	35859701.032593682	124054.89372093385
1.668750	35668008.439070977	93108.355043832329
1.675000	35445661.420491651	92659.877524093463
1.681250	35197942.160540044	92160.81827768941
1.687500	34925966.23920209	91613.020550487388
1.693750	34630868.494451538	91018.31723717213
1.700000	34313798.103939049	90378.524729871337
1.706250	33975913.897928968	89695.437753579128
1.712500	33618379.903472103	88970.825186275804
1.718750	33242361.11982597	88206.426846439659
1.725000	32849019.525112443	87403.951224437216
1.731250	32439510.314221062	86565.074123496277
1.737500	32003107.837267328	95779.604035981669
1.743750	31598201.812170178	94747.328832467407
1.750000	31177068.328813892	93678.388158772126
1.756250	30740981.485656429	92574.774910281529
1.762500	30291200.190729696	91438.392420744742
1.768750	29828964.138208669	90271.057554604515
1.775000	29355490.055885069	89074.504918583858
1.781250	28871968.223551262	87850.392082956649
1.787500	28379559.262289714	86600.305693150731
1.793750	27879391.194671281	85325.76834076691
1.800000	27372556.775857233	84028.246060723643
1.806250	26868723.100931175	96151.475837914026
1.812500	26373545.579966195	94638.053420261887
1.818750	25871662.345484231	93087.943067245564
1.825000	25364192.353427019	91503.832802725941
1.831250	24852215.537746657	89888.393086462296
1.837500	24336770.338843018	88244.277593313032
1.843750	23818851.50099567	86574.124083983974
1.850000	23299408.138785757	84880.555309423144
1.856250	22779342.072515149	83166.179879555886
1.862500	22259506.432612736	81433.593028735675
1.868750	21798324.750300676	51297.241712712188
1.875000	21295028.868622854	50210.167978076359
1.881250	20791735.253362857	49109.185390596169
1.887500	20289276.374796126	47995.517529885044
1.893750	19788438.490947388	46870.422348505403
1.900000	19289960.529058307	45735.193286385766
1.906250	18794533.194811024	44591.159966014151
1.912500	18302798.309307016	43439.688425193519
1.918750	17815348.373805337	42282.180838013228
1.925000	17332726.362214454	41120.074687741122
1.931250	16855425.741344053	39954.84135246808
1.937500	16360056.379138704	60379.722625594361
1.943750	15904194.729997549	58686.450003716614
1.950000	15453264.219145348	56994.012395484984
1.956250	15007728.212848922	55304.487159732344
1.962500	14568008.181686604	53619.976442175903
1.968750	14134483.765748978	51942.60169747191
1.975000	13707493.003998971	50274.497147080634
1.981250	13287332.727797888	48617.802126080613
1.987500	12874259.11859234	46974.652272939129
1.993750	12468488.429765157	45347.169528305174
2.000000	12070197.872648761	43737.450916813686
2.006250	11683970.183027819	30737.75370769783
2.012500	11306109.268313576	29416.714315564303
2.018750	10935187.892815042	28110.030442171879
2.025000	10571380.193247573	26820.638372568155
2.031250	10214831.155447159	25551.458833585428
2.037500	9865657.1713056155	24305.391205324024
2.043750	9523946.6959598921	23085.306835464104
2.050000	9189761.0052367412	21894.041097007907
2.056250	8863135.0533510335	20734.383713617233
2.062500	8544078.4308578856	19609.066736887453
2.068750	8244819.1935245413	15125.357102299398
2.075000	7944726.5594034716	14312.519382453564
2.081250	7651596.8706941772	13527.470903352141
2.087500	7365460.9256394403	12771.626679801688
2.093750	7086333.6084549008	12046.340177179702
2.100000	6814214.2672853619	11352.890773672982
2.106250	6549087.1476337109	10692.467286996158
2.112500	6290921.8812622856	10066.146662477233
2.118750	6039674.0305663897	9474.8669560535945
2.125000	5795285.6884188792	8919.3939355190032
2.131250	5557686.1334887119	8400.2810654870573
2.137500	5325522.3412166741	15572.186186954315
2.143750	5104923.5592067754	14838.791931609063
2.150000	4890543.582478296	14148.99460513255
2.156250	4682358.096955033	13502.397506880274
2.162500	4480336.4144895459	12898.284486867871
2.168750	4284441.4147110544	12335.603743684802
2.175000	4094629.5244013206	11812.958910647154
2.181250	3910850.7343964973	11328.609674365904
2.187500	3733048.6540163485	10880.483774184324
2.193750	3561160.6030208669	10466.201502683924
2.200000	3395117.7410928002	10083.112824011976
2.206250	3241035.5117920665	5174.7954792637038
2.212500	3089360.1291991202	4942.8294805349497
2.218750	2943068.2212876067	4720.2014593609765
2.225000	2802144.2701391294	4506.6202555323116
2.231250	2666569.5392483603	4301.7703936776661
2.237500	2536321.5638489509	4105.3146349608487
2.243750	2411373.6840096028	3916.8970356017808
2.250000	2291694.6205007015	3736.1465112518026
2.256250	2177248.0934311738	3562.6808938835688
2.262500	2067992.483655957	3396.1114546739554
2.268750	1960795.9769499195	4909.5990731928696
2.275000	1864680.2387635452	4820.7836239078606
2.281250	1773337.3743765778	4722.5174824595861
2.287500	1686768.1301221643	4614.982995154719
2.293750	1604968.9367202355	4498.4665979666006
2.300000	1527931.1250404108	4373.3436970302919
2.306250	1455640.2012741817	4240.0654265004196
2.312500	1388075.1815158667	4099.1471517513082
2.318750	1325207.9857527779	3951.1586108940915
2.325000	1267002.8912639846	3796.7156236640312
2.331250	1213416.0454283794	3636.4733439222455
2.337500	1167752.9287272305	3295.4477718020412
2.343750	1125626.3638572067	3148.8892263343955
2.350000	1087758.6093876774	3002.4319089880692
2.356250	1054133.1579821194	2857.2125489382852
2.362500	1024725.5762808	2714.4844186685123
2.368750	999502.79741232155	2575.628282046916
2.375000	978422.48784487823	2442.1625214554656
2.381250	961432.48857729533	2315.7486679559479
2.387500	948470.33066960273	2198.1862799079645
2.393750	939462.82511349639	2091.3884736477953
2.400000	934325.72704231273	1997.3273727175997
2.406250	935696.54496369907	1724.6875581774559
2.412500	940545.36972465401	1769.9737390232613
2.418750	948920.68917236535	1828.1887934829367
2.425000	960752.97300817654	1898.9343557432128
2.431250	975962.58169647702	1981.5959052961427
2.437500	994459.36613626557	2075.4081288593538
2.443750	1016142.3455311889	2179.5165955041712
2.450000	1040899.4634582693	2293.028759220037
2.456250	1068607.4221347433	2415.0515861875183
2.462500	1099131.5948838422	2544.7162637314354
2.468750	1132673.9679344576	2340.3871765060053
2.475000	1171478.7408095347	2518.7652011796808
2.481250	1212741.7508958201	2714.489834298688
2.487500	1256338.3361559915	2923.6160152468174
2.493750	1302134.9193687639	3142.8190616386437
2.500000	1349988.8986563082	3369.3371699559361
2.506250	1399748.6070320334	3600.8846389083774
2.512500	1451253.3409678661	3835.5644710544761
2.518750	1504333.4579811739	4071.7918664319882
2.525000	1558810.5432417267	4308.2314625377303
2.531250	1614497.6451981557	4543.7474643745181
2.537500	1672566.5242789588	6669.4873031475618
2.543750	1734121.6954414174	6973.0638381900217
2.550000	1796530.9024879516	7279.7321666170301
2.556250	1859625.1994300566	7588.7665210002997
2.562500	1923230.6497198779	7899.4394626164458
2.568750	1987168.4770176248	8211.0179546889176
