#List of files for average calculation
#Z:\run\2\10nmRod_Scripted_GK\10nmRod_Scripted_GK_1
#Z:\run\2\10nmRod_Scripted_GK\10nmRod_Scripted_GK_2
#Z:\run\2\10nmRod_Scripted_GK\10nmRod_Scripted_GK_3
#Z:\run\2\10nmRod_Scripted_GK\10nmRod_Scripted_GK_4
#Z:\run\2\10nmRod_Scripted_GK\10nmRod_Scripted_GK_5
#Z:\run\2\10nmRod_Scripted_GK\10nmRod_Scripted_GK_6
#Z:\run\2\10nmRod_Scripted_GK\10nmRod_Scripted_GK_7
#Z:\run\2\10nmRod_Scripted_GK\10nmRod_Scripted_GK_8
#Z:\run\2\10nmRod_Scripted_GK\10nmRod_Scripted_GK_9
#Z:\run\2\10nmRod_Scripted_GK\10nmRod_Scripted_GK_10
#Average Chi square (Sigma units): 0.56853932584269
#Sigma Chi square: 0
#Calculation was done on GPU
q [nm^-1]	Intensity [A.U]	Sigma [A.U]
0.000000	4430465.4156490145	9.8170019070567548e-010
0.006250	4431307.8360372186	0
0.012500	4430899.0702786827	9.8170019070567548e-010
0.018750	4429248.975049871	9.8170019070567548e-010
0.025000	4426368.0443532458	9.8170019070567548e-010
0.031250	4422267.4300196972	9.8170019070567548e-010
0.037500	4416958.9663099702	9.8170019070567548e-010
0.043750	4410455.1986150984	9.8170019070567548e-010
0.050000	4402769.4162558382	0
0.056250	4393915.6893811012	9.8170019070567548e-010
0.062500	4383908.909965409	9.8170019070567548e-010
0.068750	4372764.8369053239	0
0.075000	4360500.1452149097	9.8170019070567548e-010
0.081250	4347132.4793201769	0
0.087500	4332680.5104525331	9.8170019070567548e-010
0.093750	4317163.998141259	0
0.100000	4300603.8558049416	0
0.106250	4285906.2805200452	0
0.112500	4270126.0703444956	9.8170019070567548e-010
0.118750	4253287.3940848699	9.8170019070567548e-010
0.125000	4235414.9387508156	9.8170019070567548e-010
0.131250	4216533.8093605796	9.8170019070567548e-010
0.137500	4196669.4330849508	0
0.143750	4175847.4677296197	4.9085009535283774e-010
0.150000	4154093.7145559965	9.8170019070567548e-010
0.156250	4131434.0354404459	9.8170019070567548e-010
0.162500	4107894.2743719453	4.9085009535283774e-010
0.168750	4083500.1832881859	0
0.175000	4058277.3522500983	0
0.181250	4032251.1439548125	4.9085009535283774e-010
0.187500	4005446.6325870426	4.9085009535283774e-010
0.193750	3977888.5470089009	0
0.200000	3949601.2182881618	0
0.206250	3922777.9796255408	0
0.212500	3895155.1443032697	0
0.218750	3866772.6099408129	0
0.225000	3837670.1935544489	9.8170019070567548e-010
0.231250	3807887.5852745688	9.8170019070567548e-010
0.237500	3777464.303623748	0
0.243750	3746439.6523556402	4.9085009535283774e-010
0.250000	3714852.6788546434	4.9085009535283774e-010
0.256250	3682742.1340963393	0
0.262500	3650146.4341687625	9.8170019070567548e-010
0.268750	3617103.6233544229	4.9085009535283774e-010
0.275000	3583651.3387731435	0
0.281250	3549826.7765856721	0
0.287500	3515666.6597580863	4.9085009535283774e-010
0.293750	3481207.2073869975	4.9085009535283774e-010
0.300000	3446484.1055855388	0
0.306250	3413087.0267603779	9.8170019070567548e-010
0.312500	3379336.9179780344	0
0.318750	3345273.9567677262	0
0.325000	3310937.5319027635	4.9085009535283774e-010
0.331250	3276366.1995147974	4.9085009535283774e-010
0.337500	3241597.6416241154	0
0.343750	3206668.6270860322	0
0.350000	3171614.9749533166	0
0.356250	3136471.5202547098	4.9085009535283774e-010
0.362500	3101272.0821894943	4.9085009535283774e-010
0.368750	3066049.4347381326	4.9085009535283774e-010
0.375000	3030835.279688973	0
0.381250	2995660.2220810275	4.9085009535283774e-010
0.387500	2960553.7480627969	0
0.393750	2925544.2051671934	0
0.400000	2890658.7850024961	0
0.406250	2856778.3715983955	4.9085009535283774e-010
0.412500	2822939.1145170117	4.9085009535283774e-010
0.418750	2789172.5760420291	4.9085009535283774e-010
0.425000	2755509.1413240405	4.9085009535283774e-010
0.431250	2721977.9959856984	0
0.437500	2688607.1062436807	4.9085009535283774e-010
0.443750	2655423.2015474602	4.9085009535283774e-010
0.450000	2622451.7597348946	0
0.456250	2589716.9947046186	4.9085009535283774e-010
0.462500	2557241.8466052422	4.9085009535283774e-010
0.468750	2525047.9745413777	4.9085009535283774e-010
0.475000	2493155.7517964505	0
0.481250	2461584.2635723366	4.9085009535283774e-010
0.487500	2430351.3072458138	4.9085009535283774e-010
0.493750	2399473.3951418037	4.9085009535283774e-010
0.500000	2368965.759823449	0
0.506250	2339239.1555677499	4.9085009535283774e-010
0.512500	2309818.516555727	0
0.518750	2280720.1613101549	0
0.525000	2251959.1770833619	0
0.531250	2223549.4198634368	0
0.537500	2195503.5166421691	4.9085009535283774e-010
0.543750	2167832.8699447331	4.9085009535283774e-010
0.550000	2140547.6646210989	4.9085009535283774e-010
0.556250	2113656.8768991898	0
0.562500	2087168.2856997666	4.9085009535283774e-010
0.568750	2061088.4862130578	2.4542504767641887e-010
0.575000	2035422.905737112	0
0.581250	2010175.8217779051	0
0.587500	1985350.3824111684	0
0.593750	1960948.6289059569	0
0.600000	1936971.5206099623	0
0.606250	1913571.928520082	0
0.612500	1890553.8140101745	0
0.618750	1867919.9337056491	0
0.625000	1845672.2363937651	4.9085009535283774e-010
0.631250	1823811.876942581	0
0.637500	1802339.2314288984	4.9085009535283774e-010
0.643750	1781253.913475255	0
0.650000	1760554.791795928	0
0.656250	1740240.0089519601	0
0.662500	1720307.0013152133	2.4542504767641887e-010
0.668750	1700752.5202414445	2.4542504767641887e-010
0.675000	1681572.6544524082	2.4542504767641887e-010
0.681250	1662762.8536269725	2.4542504767641887e-010
0.687500	1644317.9532012714	2.4542504767641887e-010
0.693750	1626232.2003778699	2.4542504767641887e-010
0.700000	1608499.2813439586	2.4542504767641887e-010
0.706250	1591246.1289739569	2.4542504767641887e-010
0.712500	1574320.3586608099	0
0.718750	1557716.0223760626	0
0.725000	1541426.8292673884	0
0.731250	1525446.1605681665	0
0.737500	1509767.0851054413	2.4542504767641887e-010
0.743750	1494382.3754062469	0
0.750000	1479284.5244023113	2.4542504767641887e-010
0.756250	1464465.7627331347	2.4542504767641887e-010
0.762500	1449918.0766474309	0
0.768750	1435633.2265029608	0
0.775000	1421602.7658647222	2.4542504767641887e-010
0.781250	1407818.06120152	0
0.787500	1394270.3121809138	0
0.793750	1380950.5725625309	0
0.800000	1367849.7716897607	2.4542504767641887e-010
0.806250	1355149.0731413311	0
0.812500	1342652.7104647197	0
0.818750	1330353.0287287666	2.4542504767641887e-010
0.825000	1318242.4342934391	2.4542504767641887e-010
0.831250	1306313.3967460343	2.4542504767641887e-010
0.837500	1294558.451172655	2.4542504767641887e-010
0.843750	1282970.2007649175	2.4542504767641887e-010
0.850000	1271541.3197619237	2.4542504767641887e-010
0.856250	1260264.5567274743	2.4542504767641887e-010
0.862500	1249132.7381625376	2.4542504767641887e-010
0.868750	1238138.7724529731	0
0.875000	1227275.6541524935	2.4542504767641887e-010
0.881250	1216536.4686008885	2.4542504767641887e-010
0.887500	1205914.3968774939	2.4542504767641887e-010
0.893750	1195402.7210899128	0
0.900000	1184994.8299979905	2.4542504767641887e-010
0.906250	1174897.6470152806	2.4542504767641887e-010
0.912500	1164886.986067967	2.4542504767641887e-010
0.918750	1154960.3221389276	0
0.925000	1145115.3596564871	2.4542504767641887e-010
0.931250	1135350.0211249667	2.4542504767641887e-010
0.937500	1125662.4361808826	2.4542504767641887e-010
0.943750	1116050.9310747874	2.4542504767641887e-010
0.950000	1106514.0185787585	0
0.956250	1097050.3883195226	2.4542504767641887e-010
0.962500	1087658.8975372312	0
0.968750	1078338.5622698741	2.4542504767641887e-010
0.975000	1069088.54896334	0
0.981250	1059908.1665071179	2.4542504767641887e-010
0.987500	1050796.8586956451	2.4542504767641887e-010
0.993750	1041754.1971152963	2.4542504767641887e-010
1.000000	1032779.8744570159	2.4542504767641887e-010
1.006250	1024150.5034699391	1.2271252383820944e-010
1.012500	1015573.8789139239	2.4542504767641887e-010
1.018750	1007047.6702428764	0
1.025000	998569.76672409126	0
1.031250	990138.25861042202	0
1.037500	981751.41906307568	1.2271252383820944e-010
1.043750	973407.68682501954	1.2271252383820944e-010
1.050000	965105.64964500815	0
1.056250	956844.02845222806	0
1.062500	948621.66228155582	2.4542504767641887e-010
1.068750	940437.49394943775	1.2271252383820944e-010
1.075000	932290.55648038478	0
1.081250	924179.96028408338	0
1.087500	916104.88108312641	0
1.093750	908064.54859135696	2.4542504767641887e-010
1.100000	900058.23594283848	0
1.106250	892285.47058010125	1.2271252383820944e-010
1.112500	884535.75499322102	2.4542504767641887e-010
1.118750	876810.93887226633	0
1.125000	869112.93716776161	0
1.131250	861443.70890404121	0
1.137500	853805.23706203816	1.2271252383820944e-010
1.143750	846199.50953152752	1.2271252383820944e-010
1.150000	838628.50113281154	1.2271252383820944e-010
1.156250	831094.15670784772	1.2271252383820944e-010
1.162500	823598.37528082763	1.2271252383820944e-010
1.168750	816142.99528819625	1.2271252383820944e-010
1.175000	808729.78087811801	1.2271252383820944e-010
1.181250	801360.40927939035	0
1.187500	794036.45923979918	1.2271252383820944e-010
1.193750	786759.40053392237	1.2271252383820944e-010
1.200000	779530.58454037819	0
1.206250	772495.59124480851	1.2271252383820944e-010
1.212500	765493.61889167712	1.2271252383820944e-010
1.218750	758528.1602990817	1.2271252383820944e-010
1.225000	751602.60511833266	1.2271252383820944e-010
1.231250	744720.22770412709	1.2271252383820944e-010
1.237500	737884.17598221812	1.2271252383820944e-010
1.243750	731097.46131458308	1.2271252383820944e-010
1.250000	724362.94936208229	0
1.256250	717683.35194461595	0
1.262500	711061.21989877371	1.2271252383820944e-010
1.268750	705105.64808084059	0
1.275000	698661.4235555128	1.2271252383820944e-010
1.281250	692272.71749498893	1.2271252383820944e-010
1.287500	685940.09329399664	0
1.293750	679663.95140195091	0
1.300000	673444.52693064592	1.2271252383820944e-010
1.306250	667397.15690834657	1.2271252383820944e-010
1.312500	661397.34643265384	1.2271252383820944e-010
1.318750	655446.2353544319	0
1.325000	649544.83523806359	1.2271252383820944e-010
1.331250	643694.02338553767	0
1.337500	637894.53768409032	1.2271252383820944e-010
1.343750	632146.97227738716	1.2271252383820944e-010
1.350000	626451.77406025853	0
1.356250	620809.23999697529	0
1.362500	615042.3726204132	1.2271252383820944e-010
1.368750	609580.14256868057	0
1.375000	604166.8718154442	1.2271252383820944e-010
1.381250	598800.78569570254	1.2271252383820944e-010
1.387500	593479.98152426037	1.2271252383820944e-010
1.393750	588202.43072259019	1.2271252383820944e-010
1.400000	582965.98181600124	0
1.406250	577835.11789696489	1.2271252383820944e-010
1.412500	572739.25662336021	1.2271252383820944e-010
1.418750	567679.69287918787	0
1.425000	562657.62414981774	1.2271252383820944e-010
1.431250	557674.14823944226	0
1.437500	552730.26155971002	0
1.443750	547826.8579895423	1.2271252383820944e-010
1.450000	542964.72830612783	1.2271252383820944e-010
1.456250	538144.56018709752	1.2271252383820944e-010
1.462500	533366.93878388195	1.2271252383820944e-010
1.468750	528632.34786624683	1.2271252383820944e-010
1.475000	523941.17153801082	0
1.481250	519293.69652394054	1.2271252383820944e-010
1.487500	514690.11502783	0
1.493750	510130.52816175658	6.1356261919104718e-011
1.500000	505614.9499465212	0
1.506250	501362.97469432827	1.2271252383820944e-010
1.512500	497042.09088589624	0
1.518750	492755.64567863953	0
1.525000	488502.48445731623	0
1.531250	484281.44435119547	6.1356261919104718e-011
1.537500	480091.35288184613	6.1356261919104718e-011
1.543750	475931.02694274706	6.1356261919104718e-011
1.550000	471799.2721107268	1.2271252383820944e-010
1.556250	467694.88228923111	0
1.562500	463616.63968341437	1.2271252383820944e-010
1.568750	459563.31510706118	6.1356261919104718e-011
1.575000	455533.66862133157	6.1356261919104718e-011
1.581250	451526.45050533663	0
1.587500	447540.40255853802	0
1.593750	443574.25973497529	1.2271252383820944e-010
1.600000	439626.7521093227	0
1.606250	435776.99237680796	6.1356261919104718e-011
1.612500	431942.2673563991	0
1.618750	428122.73530948197	6.1356261919104718e-011
1.625000	424318.5674071532	0
1.631250	420529.94412240863	0
1.637500	416757.05188232154	6.1356261919104718e-011
1.643750	413000.07998021826	0
1.650000	409259.21774784836	6.1356261919104718e-011
1.656250	405534.65198754834	6.1356261919104718e-011
1.662500	401826.56466440123	6.1356261919104718e-011
1.668750	398135.13085838885	6.1356261919104718e-011
1.675000	394460.51697653992	6.1356261919104718e-011
1.681250	390802.8792250721	6.1356261919104718e-011
1.687500	387162.36234152835	6.1356261919104718e-011
1.693750	383539.09858690907	6.1356261919104718e-011
1.700000	379933.20699779858	6.1356261919104718e-011
1.706250	376421.01347490359	6.1356261919104718e-011
1.712500	372920.75661979278	6.1356261919104718e-011
1.718750	369433.1919499411	6.1356261919104718e-011
1.725000	365959.07983726438	6.1356261919104718e-011
1.731250	362499.18033207132	6.1356261919104718e-011
1.737500	359054.24830387818	0
1.743750	355625.02889908152	0
1.750000	352212.25331548695	0
1.756250	348816.63489369914	6.1356261919104718e-011
1.762500	345438.86552536691	6.1356261919104718e-011
1.768750	342079.61237828661	6.1356261919104718e-011
1.775000	338739.51493836526	6.1356261919104718e-011
1.781250	335419.18236844096	6.1356261919104718e-011
1.787500	332119.1911839596	0
1.793750	328840.08324551285	6.1356261919104718e-011
1.800000	325582.36406823189	6.1356261919104718e-011
1.806250	322414.99621016288	6.1356261919104718e-011
1.812500	319265.21719407581	6.1356261919104718e-011
1.818750	316133.28819974238	0
1.825000	313019.45955437241	6.1356261919104718e-011
1.831250	309923.96550052741	6.1356261919104718e-011
1.837500	306847.01933914196	6.1356261919104718e-011
1.843750	303788.80894765299	6.1356261919104718e-011
1.850000	300749.49267323833	0
1.856250	297729.19560116337	0
1.862500	294728.00619823404	6.1356261919104718e-011
1.868750	291745.97333136119	6.1356261919104718e-011
1.875000	288783.10366122989	6.1356261919104718e-011
1.881250	285839.35941107984	6.1356261919104718e-011
1.887500	282914.65651059186	6.1356261919104718e-011
1.893750	280008.86311488319	0
1.900000	277121.79849861329	0
1.906250	274286.77775448101	6.1356261919104718e-011
1.912500	271466.68337244831	6.1356261919104718e-011
1.918750	268662.81002602034	6.1356261919104718e-011
1.925000	265876.40026439022	0
1.931250	263108.64088933787	6.1356261919104718e-011
1.937500	260360.65970370214	3.0678130959552359e-011
1.943750	257633.52263142256	0
1.950000	254928.23120915476	0
1.956250	252245.72044945555	0
1.962500	249586.85707554169	0
1.968750	246952.43812761796	0
1.975000	244343.1899407793	3.0678130959552359e-011
1.981250	241759.76749448205	3.0678130959552359e-011
1.987500	239202.75413358849	0
1.993750	236672.66166098224	3.0678130959552359e-011
2.000000	234169.93080175651	6.1356261919104718e-011
2.006250	231739.50211161928	3.0678130959552359e-011
2.012500	229333.29240030277	6.1356261919104718e-011
2.018750	226950.97980221169	0
2.025000	224592.20567274158	3.0678130959552359e-011
2.031250	222256.57317227189	0
2.037500	219943.64614156826	3.0678130959552359e-011
2.043750	217652.94826859381	0
2.050000	215383.96254672908	0
2.056250	213136.13102439995	0
2.062500	210908.85484611621	0
2.068750	208701.49458491683	0
2.075000	206513.37086622493	3.0678130959552359e-011
2.081250	204343.7652831114	3.0678130959552359e-011
2.087500	202191.92160296647	3.0678130959552359e-011
2.093750	200057.04726558182	3.0678130959552359e-011
2.100000	197938.31517264061	0
2.106250	195858.86817740704	3.0678130959552359e-011
2.112500	193794.20702730442	3.0678130959552359e-011
2.118750	191744.49301161972	3.0678130959552359e-011
2.125000	189709.86080430399	0
2.131250	187690.41766497685	3.0678130959552359e-011
2.137500	185686.24283962048	0
2.143750	183697.38716096128	0
2.150000	181723.8728485399	3.0678130959552359e-011
2.156250	179765.69350846877	0
2.162500	177822.81433287702	3.0678130959552359e-011
2.168750	175895.17249904361	0
2.175000	173982.6777682188	0
2.181250	172085.21328413204	3.0678130959552359e-011
2.187500	170202.63657118918	3.0678130959552359e-011
2.193750	168334.78073235738	3.0678130959552359e-011
2.200000	166481.45584673676	3.0678130959552359e-011
2.206250	164674.39083051405	0
2.212500	162879.72091937371	0
2.218750	161097.35696842941	0
2.225000	159327.20559124087	0
2.231250	157569.16811935115	0
2.237500	155823.1397020572	0
2.243750	154089.00854641365	0
2.250000	152366.65529747051	0
2.256250	150655.95255874336	3.0678130959552359e-011
2.262500	148956.76455291643	0
2.268750	147329.78897247472	3.0678130959552359e-011
2.275000	145592.34667239877	0
2.281250	143926.80224851685	0
2.287500	142272.14376219249	0
2.293750	140628.19335066742	3.0678130959552359e-011
2.300000	138994.76567947093	3.0678130959552359e-011
2.306250	137399.35897320815	3.0678130959552359e-011
2.312500	135812.95888904022	3.0678130959552359e-011
2.318750	134235.62048861134	3.0678130959552359e-011
2.325000	132667.40433296972	3.0678130959552359e-011
2.331250	131108.37449498565	0
2.337500	129558.59670812348	0
2.343750	128018.13665156803	1.5339065479776179e-011
2.350000	126487.05837170241	0
2.356250	124965.42283994114	0
2.362500	123453.28664691529	0
2.368750	121950.70083301145	1.5339065479776179e-011
2.375000	120457.70985526449	1.5339065479776179e-011
2.381250	118974.35069060334	1.5339065479776179e-011
2.387500	117500.65207544962	1.5339065479776179e-011
2.393750	116036.63388167022	1.5339065479776179e-011
2.400000	114582.30662888379	1.5339065479776179e-011
2.406250	113157.31951156681	0
2.412500	111740.22678665168	0
2.418750	110331.48016176026	3.0678130959552359e-011
2.425000	108931.52284356693	3.0678130959552359e-011
2.431250	107540.78729800283	0
2.437500	106159.69317108823	0
2.443750	104788.64537038843	1.5339065479776179e-011
2.450000	103428.03230709539	1.5339065479776179e-011
2.456250	102078.22429873477	1.5339065479776179e-011
2.462500	100739.57213249789	0
2.468750	99412.405789199736	1.5339065479776179e-011
2.475000	98097.033327861354	0
2.481250	96891.822741607873	1.5339065479776179e-011
2.487500	95604.303579495638	0
2.493750	94327.743374011727	1.5339065479776179e-011
2.500000	93062.187484123526	0
2.506250	91821.885344385781	1.5339065479776179e-011
2.512500	90591.091949286856	1.5339065479776179e-011
2.518750	89370.209352701873	1.5339065479776179e-011
2.525000	88159.618353226426	1.5339065479776179e-011
2.531250	86959.676736571346	1.5339065479776179e-011
2.537500	85767.265756690758	0
2.543750	84589.608465481069	1.5339065479776179e-011
2.550000	83411.384585161431	1.5339065479776179e-011
2.556250	82270.168751842386	1.5339065479776179e-011
2.562500	81140.530598981524	1.5339065479776179e-011
2.568750	80022.401860994622	1.5339065479776179e-011
2.575000	78915.690392921402	1.5339065479776179e-011
2.581250	77820.279777705568	1.5339065479776179e-011
2.587500	76736.029106427886	1.5339065479776179e-011
2.593750	75662.772931494532	0
2.600000	74600.321392780199	1.5339065479776179e-011
2.606250	73556.242447856537	1.5339065479776179e-011
2.612500	72521.908516273499	1.5339065479776179e-011
2.618750	71497.638752773084	1.5339065479776179e-011
2.625000	70483.726567561505	0
2.631250	69480.438616373562	1.5339065479776179e-011
2.637500	68488.013945026745	1.5339065479776179e-011
2.643750	67488.840117213796	0
2.650000	66527.988472964236	1.5339065479776179e-011
2.656250	65578.59322778658	1.5339065479776179e-011
2.662500	64640.561120850631	7.6695327398880897e-012
2.668750	63713.775205948899	0
2.675000	62798.094882814134	0
2.681250	61893.356081021615	7.6695327398880897e-012
2.687500	60999.371596476296	0
2.693750	60115.931580484277	1.5339065479776179e-011
2.700000	59242.804181409614	0
2.706250	58388.882466522875	0
2.712500	57544.575526648128	7.6695327398880897e-012
2.718750	56709.861532651979	7.6695327398880897e-012
2.725000	55884.702902872101	0
2.731250	55069.045938418785	0
2.737500	54262.820569746444	7.6695327398880897e-012
2.743750	53465.940214494491	1.5339065479776179e-011
2.750000	52678.301746598197	7.6695327398880897e-012
2.756250	51899.785576668379	7.6695327398880897e-012
2.762500	51130.255843641236	0
2.768750	50369.560717697321	0
2.775000	49617.532814450104	7.6695327398880897e-012
2.781250	48873.989720404315	0
2.787500	48138.734629683539	0
2.793750	47411.557092027331	0
