#List of files for average calculation
#C:\Lea\Anomalous\GPU\Cu1+_Fe3+_C_MC\Cu1+_Fe3+_C_MC_1
#C:\Lea\Anomalous\GPU\Cu1+_Fe3+_C_MC\Cu1+_Fe3+_C_MC_2
#C:\Lea\Anomalous\GPU\Cu1+_Fe3+_C_MC\Cu1+_Fe3+_C_MC_3
#C:\Lea\Anomalous\GPU\Cu1+_Fe3+_C_MC\Cu1+_Fe3+_C_MC_4
#C:\Lea\Anomalous\GPU\Cu1+_Fe3+_C_MC\Cu1+_Fe3+_C_MC_5
#C:\Lea\Anomalous\GPU\Cu1+_Fe3+_C_MC\Cu1+_Fe3+_C_MC_6
#C:\Lea\Anomalous\GPU\Cu1+_Fe3+_C_MC\Cu1+_Fe3+_C_MC_7
#C:\Lea\Anomalous\GPU\Cu1+_Fe3+_C_MC\Cu1+_Fe3+_C_MC_8
#C:\Lea\Anomalous\GPU\Cu1+_Fe3+_C_MC\Cu1+_Fe3+_C_MC_9
#C:\Lea\Anomalous\GPU\Cu1+_Fe3+_C_MC\Cu1+_Fe3+_C_MC_10
#Average Chi square (Sigma units): 1.4949368313839
#Sigma Chi square: 0.25496165144494
#Calculation was done on GPU
q [nm^-1]	Intensity [A.U]	Sigma [A.U]
0.000000	1794.7538584665795	2.396728981215028e-013
0.012500	1794.9386530416318	0.00095870283765295185
0.025000	1794.9049703054775	0.0018637028564820416
0.037500	1794.6527001468978	0.0027342685840124632
0.050000	1794.1817937516444	0.00359622815456982
0.062500	1793.4922658597316	0.0044820623538396054
0.075000	1792.5841972226906	0.005430011071340772
0.087500	1791.4577372607866	0.0064821195001446017
0.100000	1790.1131069202106	0.0076815647008563999
0.112500	1788.5506017302273	0.0090699514612140163
0.125000	1786.7705950602963	0.010685281665417873
0.137500	1784.7735415771579	0.012560959939629333
0.150000	1782.5599809018797	0.014725757450484402
0.162500	1780.1305414668793	0.017204388534006555
0.175000	1777.4859445729028	0.020018328895233025
0.187500	1774.6270086459749	0.023186618309068065
0.200000	1771.5546536943154	0.026726524584896071
0.212500	1768.8153397000501	0.018197515231238057
0.225000	1765.8708507279691	0.020415994646718279
0.237500	1762.7133053521775	0.022819064170057361
0.250000	1759.3449872835185	0.025401551155901172
0.262500	1755.7682397265312	0.028157395215785964
0.275000	1751.9854610263883	0.031079924897633143
0.287500	1747.9991004568358	0.034162064230137915
0.300000	1743.8116541491211	0.037396483152922648
0.312500	1739.4256611619035	0.040775705881424193
0.325000	1734.8436996921641	0.044292188886717418
0.337500	1730.0683834271063	0.047938377452607157
0.350000	1725.1023580370379	0.051706747319622902
0.362500	1719.9482978092565	0.055589836035253401
0.375000	1714.6089024229161	0.059580267222394713
0.387500	1709.0868938648869	0.063670769986641312
0.400000	1703.3850134866093	0.067854194965140849
0.412500	1698.0575384735228	0.033380903059344963
0.425000	1692.5192466159126	0.035200700524999948
0.437500	1686.7993790665296	0.037072167128331793
0.450000	1680.9009955946476	0.038994558340237538
0.462500	1674.8272046959742	0.040967054399130398
0.475000	1668.5811624514456	0.042988763141234621
0.487500	1662.1660713989736	0.045058723530416324
0.500000	1655.5851794181376	0.047175909592487457
0.512500	1648.8417786278201	0.049339234540045955
0.525000	1641.9392042968016	0.05154755495907027
0.537500	1634.8808337672931	0.05379967493819765
0.550000	1627.6700853914183	0.056094350087779334
0.562500	1620.3104174806447	0.058430291388203187
0.575000	1612.8053272681675	0.060806168861366937
0.587500	1605.1583498842285	0.063220615034374719
0.600000	1597.3730573444004	0.065672228205597788
0.612500	1589.8905168456979	0.10302877521629747
0.625000	1582.284194612291	0.10686716953869171
0.637500	1574.538324304764	0.1107707223754484
0.650000	1566.6569901361581	0.11473654771595965
0.662500	1558.6442954295499	0.11876174370622329
0.675000	1550.5043606516151	0.12284339478241428
0.687500	1542.2413214710705	0.12697857379711355
0.700000	1533.8593268419959	0.13116434412504788
0.712500	1525.3625371120245	0.1353977617512078
0.725000	1516.7551221554136	0.13967587731599926
0.737500	1508.0412595309906	0.14399573813438724
0.750000	1499.2251326649757	0.14835439015969201
0.762500	1490.3109290586749	0.15274887991826241
0.775000	1481.3028385210566	0.15717625638824906
0.787500	1472.2050514261946	0.16163357284353405
0.800000	1463.021756995598	0.16611788864928279
0.812500	1454.098661166875	0.18474546769475489
0.825000	1445.1234557841244	0.18917481792161339
0.837500	1436.0611608127701	0.19361894978907415
0.850000	1426.9164114676664	0.19807420478071019
0.862500	1417.6938291773945	0.20253694784963228
0.875000	1408.3980193747821	0.20700356972528317
0.887500	1399.033569326692	0.21147048914941541
0.900000	1389.6050460030815	0.21593415507743838
0.912500	1380.1169939853339	0.22039104883579486
0.925000	1370.5739334138621	0.22483768622420458
0.937500	1360.9803579749685	0.22927061958918377
0.950000	1351.3407329269953	0.23368643983353421
0.962500	1341.659493165726	0.23808177840180447
0.975000	1331.9410413290707	0.24245330921013053
0.987500	1322.1897459410061	0.24679775052824354
1.000000	1312.4099395948065	0.2511118668388736
1.012500	1302.9763774422413	0.15110244890613186
1.025000	1293.4394939982174	0.15372671975773425
1.037500	1283.8723989210878	0.15634532090404141
1.050000	1274.2797761814923	0.15895651121288815
1.062500	1264.6662621853777	0.161558585112975
1.075000	1255.0364436167818	0.1641498738408704
1.087500	1245.3948553331402	0.16672874665696
1.100000	1235.7459783131133	0.16929361201025789
1.112500	1226.0942376569153	0.17184291869658103
1.125000	1216.4440006391753	0.17437515694747258
1.137500	1206.7995748143082	0.17688885951436981
1.150000	1197.1652061744021	0.17938260268090639
1.162500	1187.5450773596287	0.18185500725430118
1.175000	1177.9433059211617	0.18430473951335019
1.187500	1168.363942636621	0.18673051210755948
1.200000	1158.8109698780224	0.18913108491380209
1.212500	1149.4558596201123	0.18069327787901368
1.225000	1140.175946611196	0.18267523491909626
1.237500	1130.9208693299604	0.18462326343262414
1.250000	1121.6948807533797	0.18653586998937069
1.262500	1112.5021553947049	0.18841161592445405
1.275000	1103.3467874436294	0.19024911844357853
1.287500	1094.2327889698649	0.1920470516916262
1.300000	1085.1640881901862	0.19380414777087382
1.312500	1076.1445277988576	0.19551919773137885
1.325000	1067.1778633615438	0.19719105250531993
1.337500	1058.2677617726224	0.19881862381253043
1.350000	1049.4177997759346	0.20040088502020165
1.362500	1040.631462548984	0.20193687195800428
1.375000	1031.9121423505505	0.20342568369550873
1.387500	1023.263137231745	0.20486648327030887
1.400000	1014.6876498104972	0.20625849837644156
1.412500	1006.3899295992699	0.15283457664699612
1.425000	998.11510863360525	0.15389682495614784
1.437500	989.91247062402851	0.15492958488918612
1.450000	981.78542198934917	0.15593226103869873
1.462500	973.73726625621134	0.15690431086288381
1.475000	965.77120269338388	0.15784524509952436
1.487500	957.89032501704901	0.15875462813532826
1.500000	950.09762016707259	0.15963207830332521
1.512500	942.39596715426978	0.16047726813866467
1.525000	934.78813597865133	0.16128992455327826
1.537500	927.27678661866253	0.16206982896525446
1.550000	919.86446809140693	0.16281681735041387
1.562500	912.55361758386084	0.16353078023316059
1.575000	905.34655965508011	0.16421166260760189
1.587500	898.24550550938125	0.16485946378585864
1.600000	891.25255234052656	0.1654742371720456
1.612500	884.33710912474021	0.19995576640206283
1.625000	877.66523276606699	0.20018784084938362
1.637500	871.10061198027847	0.20036586382245533
1.650000	864.64550406109413	0.20048967328843439
1.662500	858.30204808838459	0.20055917363765222
1.675000	852.07226418491678	0.20057433583863843
1.687500	845.95805284752691	0.20053519754251423
1.700000	839.9611943527409	0.20044186313442677
1.712500	834.08334823681764	0.20029450372541879
1.725000	828.32605285024147	0.20009335709586495
1.737500	822.69072498664207	0.19983872757157956
1.750000	817.17865958615516	0.19953098585667622
1.762500	811.7910295132184	0.19917056878190056
1.775000	806.52888540880315	0.19875797901797193
1.787500	801.39315561708554	0.19829378470389708
1.800000	796.3846461865478	0.19777861901831559
1.812500	791.70359873664802	0.1668707578901259
1.825000	787.02824396934989	0.16696048155027224
1.837500	782.47969644306636	0.16702547834722717
1.850000	778.05890515187207	0.16706624987420585
1.862500	773.76669629430864	0.16708332942156739
1.875000	769.60377320061264	0.16707728059877644
1.887500	765.57071633334976	0.16704869587421042
1.900000	761.66798336143358	0.16699819502524138
1.912500	757.89590930753934	0.16692642350432341
1.925000	754.25470676891462	0.16683405072429366
1.937500	750.7444662115754	0.16672176824704316
1.950000	747.36515633790009	0.16659028790768488
1.962500	744.11662452761243	0.1664403398347111
1.975000	740.9985973521683	0.16627267040973254
1.987500	738.01068116251349	0.16608804013663744
2.000000	735.152362750257	0.16588722144338247
2.012500	732.43103588553015	0.093387051760085257
2.025000	729.90751096093879	0.09245952152913138
2.037500	727.51373354994041	0.091536416937815057
2.050000	725.24934504336602	0.090620470581422488
2.062500	723.11387026124919	0.089714516940089487
2.075000	721.10671801325611	0.088821487048168946
2.087500	719.22718172729674	0.087944401657409216
2.100000	717.47444014629127	0.087086362702066294
2.112500	715.84755809312946	0.086250542894883625
2.125000	714.34548730377185	0.085440173302925207
2.137500	712.96706732855137	0.084658528754640583
2.150000	711.71102650161811	0.083908910978123391
2.162500	710.57598297857442	0.083194629409920839
2.175000	709.56044584227186	0.082518979679896451
2.187500	708.66281627677881	0.081885219830875489
2.200000	707.88138880951726	0.081296544437187784
2.212500	707.41232617919354	0.21345744286454091
2.225000	706.95912678644504	0.21232695352844269
2.237500	706.62273637974249	0.21117232798225713
2.250000	706.40163999511083	0.20999482164748601
2.262500	706.29422202240426	0.20879572817084455
2.275000	706.29876728461591	0.2075763778134567
2.287500	706.41346217670502	0.20633813572026247
2.300000	706.63639586390195	0.20508240005739101
2.312500	706.96556153953964	0.20381060002334475
2.325000	707.39885774236188	0.20252419370651381
2.337500	707.93408973335113	0.20122466581136833
2.350000	708.56897093204623	0.19991352523103045
2.362500	709.30112441236929	0.19859230246029838
2.375000	710.12808445794133	0.19726254685820477
2.387500	711.04729817691373	0.19592582374766407
2.400000	712.05612717629117	0.19458371135125793
2.412500	713.27851592123977	0.11536113260543256
2.425000	714.59899968022353	0.11423763150652311
2.437500	716.01011232679491	0.11311070398952203
2.450000	717.50946377706373	0.11198135963572199
2.462500	719.09458654573803	0.11085062092334341
2.475000	720.76293716813814	0.10971952254639764
2.487500	722.51189767079291	0.10858911067694117
2.500000	724.33877709061858	0.10746044219622437
2.512500	726.24081304267463	0.10633458386595138
2.525000	728.21517333650741	0.10521261145681965
2.537500	730.25895764107531	0.10409560882171247
2.550000	732.36919919824868	0.10298466690706568
2.562500	734.54286658489991	0.10188088270927922
2.575000	736.77686552357068	0.10078535816655017
2.587500	739.06804074171964	0.09969919897627133
2.600000	741.41317787955757	0.098623513355382997
2.612500	743.84326106297385	0.12343975440867845
2.625000	746.48199154000429	0.12194932327673215
2.637500	749.17598960299051	0.12049221513263765
2.650000	751.92235629935215	0.11907138186421615
2.662500	754.71814264111731	0.11768979347274708
2.675000	757.56035115807822	0.11635042645287215
2.687500	760.44593748784246	0.11505625071338173
2.700000	763.37181200278451	0.11381021498412941
2.712500	766.33484147387833	0.1126152307678587
2.725000	769.33185077142764	0.11147415485502904
2.737500	772.35962460269388	0.11038977052542909
2.750000	775.41490928641031	0.10936476758807245
2.762500	778.49441456418992	0.10840172145675601
2.775000	781.59481544883124	0.10750307154503928
2.787500	784.71275410950761	0.10667109928912076
2.800000	787.84484179386095	0.10590790618421991
2.812500	791.3879785172802	0.19944426497495388
2.825000	794.78897124536843	0.20019804993005091
2.837500	798.20545053320689	0.2009297439922561
2.850000	801.63441472263276	0.20163843553162294
2.862500	805.07284008565045	0.20232322998057758
2.875000	808.51768228868946	0.20298325084687374
2.887500	811.96587788280794	0.20361764070944491
2.900000	815.41434581981866	0.20422556219337717
2.912500	818.85998899435515	0.20480619893820992
2.925000	822.29969581186435	0.20535875654511643
2.937500	825.73034178253624	0.20588246351591663
2.950000	829.14879114116081	0.2063765721838656
2.962500	832.55189849292469	0.20684035963564937
2.975000	835.93651048513061	0.20727312861923594
2.987500	839.29946750485874	0.20767420845683615
3.000000	842.6376054025568	0.20804295594601846
3.012500	846.12280301277713	0.12792688342889619
3.025000	849.70729828382014	0.12755866234907692
3.037500	853.2683258691759	0.12719011101405719
3.050000	856.80317400638592	0.1268207489785681
3.062500	860.30913385442364	0.12645012334938976
3.075000	863.78350066887685	0.12607781080343028
3.087500	867.22357499423356	0.12570341954855077
3.100000	870.62666387325532	0.12532659119686601
3.112500	873.99008207343991	0.12494700259372016
3.125000	877.31115333057755	0.12456436756059741
3.137500	880.5872116093924	0.12417843858471213
3.150000	883.81560238128145	0.12378900842754376
3.162500	886.99368391914118	0.12339591168210991
3.175000	890.11882860928256	0.12299902624441139
3.187500	893.18842428044138	0.12259827472556488
3.200000	896.1998755498737	0.12219362579299947
3.212500	899.53801806153353	0.14663895597395896
3.225000	902.77539605164259	0.1472265683589091
3.237500	905.95578709092479	0.14778805263711026
3.250000	909.07709934831348	0.14832238867244144
3.262500	912.13726299284826	0.14882859670646914
3.275000	915.13423092560913	0.14930573720698936
3.287500	918.06597952308607	0.14975291070497282
3.300000	920.93050939195746	0.15016925762628422
3.312500	923.72584613530125	0.15055395814711769
3.325000	926.45004113022242	0.15090623203330747
3.337500	929.10117231690037	0.1512253385118415
3.350000	931.6773449990676	0.151510576146306
3.362500	934.1766926559045	0.1517612827377405
3.375000	936.59737776535371	0.15197683524401134
3.387500	938.93759263886625	0.15215664972205573
3.400000	941.19556026755527	0.15230018129655365
3.412500	943.77027839075288	0.12860812411937633
3.425000	946.23836957658591	0.12931145779844005
3.437500	948.62506827865059	0.13000549793806562
3.450000	950.92913327097699	0.13068926796629388
3.462500	953.14935637227211	0.13136181201169483
3.475000	955.28456264396152	0.13202219517658284
3.487500	957.33361059780623	0.13266950376613335
3.500000	959.29539241306395	0.13330284551167201
3.512500	961.16883416321673	0.13392134976534811
3.525000	962.95289605225537	0.13452416768332995
3.537500	964.6465726605071	0.13511047240256349
3.550000	966.24889320003842	0.13567945921305885
3.562500	967.75892177960486	0.13623034571606277
3.575000	969.17575767915605	0.13676237199988497
3.587500	970.4985356339057	0.1372748008034583
3.600000	971.72642612795005	0.13776691769092872
3.612500	973.17841572614395	0.080403755945201105
3.625000	974.60992214735904	0.078457486042197808
3.637500	975.94705931150224	0.076510625708095165
3.650000	977.18954090802106	0.074567613243105124
3.662500	978.33711572533389	0.072633286047596071
3.675000	979.38956729875861	0.070712919142308886
3.687500	980.34671357003663	0.068812265874759179
3.700000	981.20840655842437	0.066937599858564081
3.712500	981.97453204338456	0.065095756636601998
3.725000	982.64500925883931	0.063294172843467028
3.737500	983.21979059903788	0.061540919677035413
3.750000	983.6988613359747	0.059844726390594453
3.762500	984.0822393484093	0.058214988134884231
3.775000	984.36997486247242	0.056661751110059493
3.787500	984.56215020384172	0.055195666659302214
3.800000	984.65887956151403	0.053827904986108663
3.812500	985.05672341437764	0.19011743008757309
3.825000	985.3547997484593	0.18987463203553792
3.837500	985.55761000915959	0.18963084667230698
3.850000	985.66579850498601	0.18938559967568727
3.862500	985.68003794384492	0.18913838057146848
3.875000	985.60102858613504	0.18888864406429573
3.887500	985.42949741491304	0.18863581148320233
3.900000	985.16619732315121	0.18837927234412993
3.912500	984.81190631807453	0.18811838602828801
3.925000	984.36742674258676	0.1878524835499894
3.937500	983.83358451377501	0.18758086942793228
3.950000	983.21122837849759	0.18730282364750495
3.962500	982.50122918606326	0.18701760369287965
3.975000	981.70447917798413	0.18672444665515206
3.987500	980.82189129482208	0.18642257141749166
4.000000	979.85439850010789	0.18611118087972325
4.012500	979.15949450518326	0.19729528902783242
4.025000	978.40067224761458	0.19724085967446478
4.037500	977.5568496900662	0.19716399264311393
4.050000	976.62945527997852	0.19706528286449554
4.062500	975.61993178755858	0.19694531850358296
4.075000	974.52973508298021	0.19680468032845128
4.087500	973.36033293876915	0.19664394113920741
4.100000	972.11320385736212	0.19646366526181233
4.112500	970.78983592385089	0.19626440810168252
4.125000	969.39172568390563	0.19604671576447946
4.137500	967.92037704687777	0.19581112473238169
4.150000	966.37730021408754	0.19555816160114392
4.162500	964.76401063228661	0.19528834287168112
4.175000	963.08202797230445	0.1950021748046574
4.187500	961.33287513287598	0.19470015332453131
4.200000	959.51807726964819	0.19438276397997054
4.212500	958.08816169960789	0.21197615255581675
4.225000	956.49190504003468	0.2121175767984749
4.237500	954.82960857163403	0.21221643612861965
4.250000	953.10324736612961	0.21227241805377092
4.262500	951.31479171657395	0.21228523310015565
4.275000	949.46620570005325	0.21225461584319655
4.287500	947.55944577506762	0.21218032598862999
4.300000	945.59645941359918	0.21206214946033333
4.312500	943.57918376784232	0.2118998995427358
4.325000	941.50954437162341	0.2116934180297802
4.337500	939.38945387649233	0.2114425764122578
4.350000	937.22081082249701	0.21114727708311204
4.362500	935.00549844362126	0.21080745456538921
4.375000	932.74538350792045	0.21042307676142993
4.387500	930.44231519231471	0.20999414622028117
4.400000	928.09812399207908	0.20952070142601423
4.412500	925.98095902977855	0.12981009551362485
4.425000	923.87008868176179	0.12930954844751102
4.437500	921.71768354009214	0.12883097209911912
4.450000	919.52596970133823	0.12837517723933978
4.462500	917.29714710604662	0.12794289407297965
4.475000	915.03338806958038	0.12753477087320736
4.487500	912.73683585722733	0.12715137297328019
4.500000	910.40960330356938	0.12679318214176771
4.512500	908.05377147612	0.12646059633123091
4.525000	905.6713883832374	0.12615392983450341
4.537500	903.2644677262906	0.12587341382248407
4.550000	900.83498769610435	0.1256191972878542
4.562500	898.38488981366572	0.12539134837523622
4.575000	895.91607781509992	0.12518985608529737
4.587500	893.43041658091261	0.12501463235743751
4.600000	890.92973110949902	0.12486551448718154
4.612500	888.79993556119609	0.14286935858274455
4.625000	886.54947140580441	0.14257701304405099
4.637500	884.28350501988552	0.14229116332773359
4.650000	882.00420440080484	0.14201234077903344
4.662500	879.71369079772444	0.14174108454568773
4.675000	877.41403738766223	0.14147794144309947
4.687500	875.10726800419798	0.14122346569273467
4.700000	872.79535591881881	0.14097821855797207
4.712500	870.4802226749207	0.14074276785442863
4.725000	868.16373697444669	0.14051768733259182
4.737500	865.84771361717571	0.14030355594020466
4.750000	863.53391249265792	0.14010095694709998
4.762500	861.22403762479519	0.13991047694707889
4.775000	858.91973626906326	0.13973270471569924
4.787500	856.62259806239069	0.13956822995116444
4.800000	854.33415422566964	0.13941764187026154
4.812500	852.25507470993728	0.08943519339719716
4.825000	850.2317392014229	0.088706392532534442
4.837500	848.21679724702426	0.088000440016394274
4.850000	846.21207862463382	0.087317050017202899
4.862500	844.21934930112548	0.086655886851876862
4.875000	842.24031040236491	0.086016569260669265
4.887500	840.27659724191255	0.08539867496201968
4.900000	838.32977840844319	0.084801745450171565
4.912500	836.40135491185515	0.084225290999328434
4.925000	834.49275938811275	0.083668795834104429
4.937500	832.605355362762	0.083131723428302912
4.950000	830.74043657318111	0.082613521875618282
4.962500	828.89922634951313	0.082113629302546232
4.975000	827.08287705432394	0.081631479274775917
4.987500	825.2924695809545	0.08116650615452678
