#List of files for average calculation
#C:\D+_tests\Symmetry\GPU\WH\Manual_Symmetry_Implicit_No_Charges_With_Hydration_Hybrid_MC\Manual_Symmetry_Implicit_No_Charges_With_Hydration_Hybrid_MC_1
#C:\D+_tests\Symmetry\GPU\WH\Manual_Symmetry_Implicit_No_Charges_With_Hydration_Hybrid_MC\Manual_Symmetry_Implicit_No_Charges_With_Hydration_Hybrid_MC_2
#C:\D+_tests\Symmetry\GPU\WH\Manual_Symmetry_Implicit_No_Charges_With_Hydration_Hybrid_MC\Manual_Symmetry_Implicit_No_Charges_With_Hydration_Hybrid_MC_3
#C:\D+_tests\Symmetry\GPU\WH\Manual_Symmetry_Implicit_No_Charges_With_Hydration_Hybrid_MC\Manual_Symmetry_Implicit_No_Charges_With_Hydration_Hybrid_MC_4
#C:\D+_tests\Symmetry\GPU\WH\Manual_Symmetry_Implicit_No_Charges_With_Hydration_Hybrid_MC\Manual_Symmetry_Implicit_No_Charges_With_Hydration_Hybrid_MC_5
#C:\D+_tests\Symmetry\GPU\WH\Manual_Symmetry_Implicit_No_Charges_With_Hydration_Hybrid_MC\Manual_Symmetry_Implicit_No_Charges_With_Hydration_Hybrid_MC_6
#C:\D+_tests\Symmetry\GPU\WH\Manual_Symmetry_Implicit_No_Charges_With_Hydration_Hybrid_MC\Manual_Symmetry_Implicit_No_Charges_With_Hydration_Hybrid_MC_7
#C:\D+_tests\Symmetry\GPU\WH\Manual_Symmetry_Implicit_No_Charges_With_Hydration_Hybrid_MC\Manual_Symmetry_Implicit_No_Charges_With_Hydration_Hybrid_MC_8
#C:\D+_tests\Symmetry\GPU\WH\Manual_Symmetry_Implicit_No_Charges_With_Hydration_Hybrid_MC\Manual_Symmetry_Implicit_No_Charges_With_Hydration_Hybrid_MC_9
#C:\D+_tests\Symmetry\GPU\WH\Manual_Symmetry_Implicit_No_Charges_With_Hydration_Hybrid_MC\Manual_Symmetry_Implicit_No_Charges_With_Hydration_Hybrid_MC_10
#Average Chi square (Sigma units): 1.4531235674768
#Sigma Chi square: 0.2372349716325
#Calculation was done on GPU
q [nm^-1]	Intensity [A.U]	Sigma [A.U]
0.000000	62833252731.897873	0
0.006250	62893685067.919724	939401.82550932595
0.012500	62827708683.149353	1939324.5827604665
0.018750	62641197235.123329	2945346.8150920821
0.025000	62338185233.39003	3881693.6299109864
0.031250	61920938689.133682	4656893.0302168103
0.037500	61390159973.692978	5172835.3962132493
0.043750	60745314581.481064	5341782.0847981423
0.050000	59985057623.219704	5125699.6129686488
0.056250	59107745328.956985	4647974.0577124478
0.062500	58111993052.650833	4488470.2821265832
0.068750	57079614338.749939	7704159.5971724885
0.075000	56080013227.703049	9927309.448324224
0.081250	54967265021.915939	12653946.475541409
0.087500	53754600862.450348	15801334.715598375
0.093750	52454654754.030869	19278099.627630766
0.100000	51079182314.736984	22997966.796872485
0.106250	49638898666.600868	26883972.586735442
0.112500	48143416578.259819	30868707.46565054
0.118750	46601262905.7575	34892942.468102865
0.125000	45019979877.106583	38903371.417744525
0.131250	43406261886.534904	42850060.029753201
0.137500	41871431137.03624	41982672.86389643
0.143750	40351116386.686264	44841309.214741834
0.150000	38809561262.845375	47559758.690907903
0.156250	37259109335.833725	50097187.05848185
0.162500	35710399729.90184	52417391.521504894
0.168750	34172441062.38871	54490163.189253442
0.175000	32652739888.564911	56292286.941402763
0.181250	31157430890.097145	57808079.347833723
0.187500	29691484515.898338	59029371.08780656
0.193750	28258870683.965118	59955161.031074561
0.200000	26862752428.756268	60590913.633705653
0.206250	25545451224.381435	40718850.411698192
0.212500	24298315171.475563	41093515.491344981
0.218750	23086756315.562538	41329397.698311932
0.225000	21914587577.740078	41434546.149975531
0.231250	20784521234.999184	41417748.744368501
0.237500	19698334574.32526	41288219.783503078
0.243750	18657004358.455914	41055345.950372331
0.250000	17660869831.762955	40728488.166550092
0.256250	16709740532.851171	40316850.893832549
0.262500	15803011680.126337	39829386.574092217
0.268750	14984853898.676519	60365442.983974591
0.275000	14196952271.916225	59325796.553810284
0.281250	13445438064.008442	58161670.548289865
0.287500	12730211847.643084	56886500.950619146
0.293750	12050698102.572498	55513807.655719675
0.300000	11405944419.263477	54056928.959177598
0.306250	10794722829.051899	52528867.749199048
0.312500	10215585981.329399	50942110.385573871
0.318750	9666940766.7341042	49308556.237259358
0.325000	9147092424.0301781	47639446.697461709
0.331250	8654279550.0059948	45945326.286708638
0.337500	8186934498.8544941	39027340.071995862
0.343750	7760347058.5246277	37611036.306955263
0.350000	7353826039.743803	36189061.353473715
0.356250	6966326925.3852034	34769641.117889427
0.362500	6596790599.5192051	33360241.036744229
0.368750	6244175941.6695356	31967536.141975228
0.375000	5907465870.8341112	30597340.799473125
0.381250	5585684675.6274395	29254640.682070062
0.387500	5277902247.6313057	27943619.733910397
0.393750	4983236331.4237499	26667692.21490055
0.400000	4700860767.8206902	25429573.832245383
0.406250	4443126360.4973927	23214888.504684769
0.412500	4191734023.6289215	22351660.896180689
0.418750	3949563970.2397766	21524187.898463439
0.425000	3716488877.0310717	20728740.803978696
0.431250	3492417692.0866556	19961730.817907594
0.437500	3277276157.3991022	19219796.170235746
0.443750	3070999615.8940883	18499876.608053263
0.450000	2873522269.747077	17799246.194486611
0.456250	2684769765.7035007	17115521.603127081
0.462500	2504659015.7925978	16446661.551181089
0.468750	2332012311.0057702	11938583.712563947
0.475000	2173892126.853775	11398050.844192002
0.481250	2023129527.4818358	10864100.509364597
0.487500	1879897587.4100666	10337151.796691576
0.493750	1744318041.8380513	9817809.2229759786
0.500000	1616450690.1744108	9306825.9892006293
0.506250	1496293132.0712008	8805081.0269422047
0.512500	1383783901.2671125	8313553.7499400359
0.518750	1278800390.4802907	7833267.5062646167
0.525000	1181172606.6327071	7365292.463262938
0.531250	1090681918.5986753	6910684.6486101029
0.537500	1010533271.8804207	5250275.7410026081
0.543750	935061938.73542058	4925087.2120006531
0.550000	865542945.16540968	4607972.7671404313
0.556250	801760545.33039606	4299955.5618044641
0.562500	743451675.54242253	4002006.4646420577
0.568750	690320048.18306017	3715039.6324992073
0.575000	642044109.43200374	3439890.3689570171
0.581250	598285258.9987489	3177295.9462579605
0.587500	558699151.54181695	2927912.8543322105
0.593750	522938613.41825521	2692299.2089880025
0.600000	490660649.94590318	2470936.0711920098
0.606250	461961504.82747459	2668470.0231737955
0.612500	436436715.53099918	2529667.9864170258
0.618750	413213211.09466851	2405108.9543318115
0.625000	392008134.22521627	2293229.7388451705
0.631250	372563607.0036484	2192436.1480676699
0.637500	354649719.55639821	2101168.1542648049
0.643750	338065433.01660955	2017958.4890451841
0.650000	322638763.65804023	1941487.1066970536
0.656250	308222703.7925663	1870602.5587055783
0.662500	294691989.54222935	1804337.3746823331
0.668750	282282898.4874984	823808.59641105228
0.675000	270940038.89074409	779641.06480940955
0.681250	259858716.49449402	758384.06839645433
0.687500	248985873.33744583	755452.50342305657
0.693750	238302250.14532739	765759.62526787212
0.700000	227816671.29566789	784595.58368161658
0.706250	217558934.21371013	808106.51171753067
0.712500	207572863.820831	833377.6946205789
0.718750	197907790.1888136	858302.47700102883
0.725000	188612019.45840132	881389.26686477591
0.731250	179726611.70714641	901588.92085322284
0.737500	172524110.25948182	844819.06755107339
0.743750	164854012.83921224	862977.21092170337
0.750000	157393392.44801855	881828.00073741539
0.756250	150207812.01395741	899453.65337002068
0.762500	143364967.16674158	914147.88550021034
0.768750	136927134.62296572	924499.15586569835
0.775000	130945169.36675708	929450.45580561203
0.781250	125452922.96582332	928333.2621644811
0.787500	120464386.82809229	920874.68646753742
0.793750	115972203.57661715	907178.5793483298
0.800000	111948432.87744868	887680.70111568074
0.806250	108492210.06385326	681624.27614012884
0.812500	105570100.32798783	650512.55098641221
0.818750	102985537.38942043	618555.02177666489
0.825000	100732224.87254263	586265.07020805008
0.831250	98792463.995709926	554185.09825732245
0.837500	97135190.256860152	522865.99038854742
0.843750	95715370.087322801	492830.79451399378
0.850000	94475272.47626996	464534.72533775651
0.856250	93347039.459983736	438323.19056353252
0.862500	92256493.240181684	414397.88745137281
0.868750	90812616.84598425	505642.61075653316
0.875000	90001306.063173905	485055.68826764589
0.881250	89146668.325263888	467221.08343111537
0.887500	88227887.194528416	452346.29692675342
0.893750	87221294.386496425	440479.25153080944
0.900000	86100482.350044414	431489.99628802028
0.906250	84837316.15912357	425076.3039345782
0.912500	83403872.951377735	420800.27186559397
0.918750	81774779.866425335	418145.85772798123
0.925000	79929714.299398884	416586.30243752449
0.931250	77855980.007167637	415647.0642538598
0.937500	75716460.052215606	381059.25804684067
0.943750	73541856.66156368	376708.84791607404
0.950000	71224368.130533531	373605.89526204951
0.956250	68792910.106464893	372125.56091999431
0.962500	66273977.469864681	372541.19397136488
0.968750	63692205.356521055	375012.13687458646
0.975000	61071479.594349347	379577.86750174448
0.981250	58435779.261451736	386160.29158806294
0.987500	55809809.849868454	394573.70752018172
0.993750	53219559.756817006	404541.15296033124
1.000000	50692075.310935341	415716.83463353518
1.006250	48309850.980870053	210759.02125811833
1.012500	46122234.836784288	213733.29423266498
1.018750	44071795.080948494	217096.29995987867
1.025000	42180588.118948713	220552.71483844687
1.031250	40464827.379039422	223865.95102440883
1.037500	38935556.486237504	226857.20784364612
1.043750	37599322.642545782	229401.33250758736
1.050000	36458589.70173303	231421.16394514171
1.056250	35511826.454269506	232883.46615664585
1.062500	34753615.349850662	233793.88876696822
1.068750	34237747.719686046	349180.69216654246
1.075000	33869689.809483372	351980.42878305429
1.081250	33651679.489716962	353991.00170369045
1.087500	33569182.43113327	355227.96759050089
1.093750	33605012.78974387	355713.72809178475
1.100000	33739984.328264356	355475.9861703054
1.106250	33953378.947318092	354545.87207548408
1.112500	34223252.195895195	352955.30413634039
1.118750	34526680.403300449	350734.6814981444
1.125000	34839938.262687914	347910.87518478982
1.131250	35138781.800592877	344505.76912172465
1.137500	35455753.769810721	354748.11884419614
1.143750	35736182.345610544	350605.08379736613
1.150000	35947696.395282522	346633.62992636848
1.156250	36077631.750699207	342817.69027378538
1.162500	36115591.37096478	339129.39926668856
1.168750	36053252.177107751	335534.27274837834
1.175000	35884187.508945182	331995.38539918105
1.181250	35603718.238321573	328476.53115300095
1.187500	35208896.972945243	324944.93022705329
1.193750	34698555.83286979	321372.24899559357
1.200000	34073469.311036423	317735.37809273211
1.206250	33465383.342662968	187576.03694815518
1.212500	32697262.675878346	181696.31570077562
1.218750	31829085.092549164	175806.27253079644
1.225000	30875161.8618371	169940.55859752258
1.231250	29850330.255913652	164132.66858949518
1.237500	28769587.935511053	158413.30350502793
1.243750	27647749.886945445	152808.51833766102
1.250000	26499415.869764786	147339.84537043562
1.256250	25338819.411193077	142023.84214207393
1.262500	24179804.239252854	136872.36629430091
1.268750	22972350.271511737	219151.26662407999
1.275000	21879128.51415693	210147.88075767524
1.281250	20813408.47822611	201299.64144941961
1.287500	19788898.859846942	192576.00100287193
1.293750	18816993.587196212	183950.07788353573
1.300000	17906847.031680204	175405.62184518061
1.306250	17065436.057158731	166941.90707464039
1.312500	16297821.003949802	158579.0785333048
1.318750	15607215.16698787	150360.20256060688
1.325000	14995086.640830526	142352.73133346281
1.331250	14461172.936190629	134647.8260262736
1.337500	13973811.244003985	95943.356028741473
1.343750	13593060.213996122	88628.219650296014
1.350000	13278014.436920471	81841.875650808302
1.356250	13023543.078784022	75793.704344382815
1.362500	12823778.483224165	70704.956426015764
1.368750	12672416.198299015	66784.743133282871
1.375000	12562941.41509877	64193.218868315038
1.381250	12488685.30264168	62997.048792527596
1.387500	12442785.267594937	63138.307230367151
1.393750	12418026.81681486	64435.144433224057
1.400000	12406610.096063174	66614.235507870966
1.406250	12421472.742425747	80043.02894655928
1.412500	12443714.411316272	81657.928329278118
1.418750	12453745.949815882	83371.578546777324
1.425000	12447361.192421198	85064.670918947246
1.431250	12421961.559648644	86637.870652060432
1.437500	12376312.190305056	88012.057027204399
1.443750	12310180.32049353	89125.977307672656
1.450000	12223892.714987326	89931.893033837143
1.456250	12117870.636272414	90390.878448875839
1.462500	11992168.891874749	90468.168055019851
1.468750	11885585.685076332	76685.465036272304
1.475000	11777370.441208381	76960.838689511947
1.481250	11634848.591972921	77000.922021584003
1.487500	11463192.681460677	76817.471385690806
1.493750	11268772.241086492	76433.66606522417
1.500000	11058571.63911082	75881.609180266314
1.506250	10839567.992336089	75199.611990042074
1.512500	10618162.690939832	74429.448463798573
1.518750	10399695.85579964	73613.927494431206
1.525000	10188055.828834854	72794.116592661754
1.531250	9985478.5621291921	72007.312264202817
1.537500	9849906.9410747401	93218.671431197756
1.543750	9718219.5825510882	90093.421944726782
1.550000	9587836.6649872269	86891.75175212539
1.556250	9465206.1128725726	83752.662696496685
1.562500	9356177.8367067985	80805.458755141197
1.568750	9265539.8140756749	78160.608365558684
1.575000	9196678.0411535874	75902.870402391432
1.581250	9151362.1348335482	74086.959794952403
1.587500	9129665.3761442564	72736.153960443713
1.593750	9130029.1804864816	71844.689941323522
1.600000	9149448.5635779854	71382.865824077802
1.606250	9243337.5940863192	99070.07588718053
1.612500	9338535.1444137022	100131.27378736935
1.618750	9443576.8492319398	101301.3166022489
1.625000	9559204.5853992328	102596.83188317502
1.631250	9685252.2496303469	104018.74872261664
1.637500	9820556.1499623246	105551.68605583707
1.643750	9962968.9956214167	107165.29968967593
1.650000	10109480.947460793	108817.13124463204
1.656250	10256386.929727836	110456.29777079569
1.662500	10399538.529021893	112028.2472667457
1.668750	10512319.433603464	78250.49026300681
1.675000	10681676.6453593	80406.015518290951
1.681250	10840256.3933769	82440.302628092948
1.687500	10988117.482357297	84343.951429941953
1.693750	11125007.684919441	86108.877399692545
1.700000	11250367.669681463	87728.198180483349
1.706250	11363389.668812256	89196.375201744784
1.712500	11463121.69183005	90509.779119282393
1.718750	11548568.866471741	91666.899540143655
1.725000	11618819.4134009	92668.920848243622
1.731250	11673147.976298343	93519.844447014766
1.737500	11717103.605500828	80469.154502471094
1.743750	11783277.587720172	80905.807801359726
1.750000	11836991.540140595	81180.621576798178
1.756250	11879791.588340711	81290.528336642237
1.762500	11912970.241852906	81234.333440580667
1.768750	11937591.220551645	81012.990716058237
1.775000	11954521.394607108	80629.919725275016
1.781250	11964455.050737133	80091.344355001129
1.787500	11967931.199243508	79406.559283083741
1.793750	11965336.21983416	78588.15629138652
1.800000	11956893.170898102	77652.298441179533
1.806250	11954747.614190584	110629.4959894674
1.812500	11975600.567169074	109916.21577372368
1.818750	11994798.176888926	109051.02771283391
1.825000	12013404.325858187	108053.01782412366
1.831250	12032189.999777744	106943.86048331289
1.837500	12051642.087313844	105747.56482789536
1.843750	12071960.451140128	104490.49537105672
1.850000	12093051.712281296	103200.9099883212
1.856250	12114516.106791085	101908.53680144745
1.862500	12135635.145784207	100643.87789179046
1.868750	12188453.121211344	91186.767350838636
1.875000	12245489.015578568	89948.603040648028
1.881250	12302227.867317397	88852.973318936987
1.887500	12358877.089115456	87895.291822511092
1.893750	12415470.910053348	87067.566769563651
1.900000	12471850.576432995	86358.699769386396
1.906250	12527630.421554932	85754.146380041566
1.912500	12582175.519032996	85236.043874160401
1.918750	12634578.977499839	84782.875112849186
1.925000	12683649.706565131	84369.518745675086
1.931250	12727918.246461133	83967.445617580859
1.937500	12727056.654578965	97124.246843045854
1.943750	12805602.044648334	94135.519561596608
1.950000	12879534.18280009	91058.508068013587
1.956250	12949494.344854673	87921.767283371883
1.962500	13015963.323369917	84754.560743422029
1.968750	13079192.727478219	81586.750724482612
1.975000	13139160.048799694	78448.093932930205
1.981250	13195530.428858206	75367.83489131392
1.987500	13247634.448501725	72373.96461218597
1.993750	13294468.158407733	69492.063964604444
2.000000	13334701.177516434	66744.670679868097
2.006250	13471187.035067687	108743.0104735816
2.012500	13549568.461473133	108827.75244450654
2.018750	13622969.360576857	108997.55775035663
2.025000	13692015.561660493	109256.76657361265
2.031250	13756970.138547787	109607.81374282169
2.037500	13817710.396570032	110050.93670212585
2.043750	13873694.660128985	110584.0113845189
2.050000	13923949.522083199	111202.0857659997
2.056250	13967094.46231718	111897.09712802866
2.062500	14001353.427297052	112657.2648224914
2.068750	14010842.650799055	93584.483879536012
2.075000	14077924.440680986	96853.262559174647
2.081250	14134848.139644429	100203.13654769374
2.087500	14182115.583755875	103606.22185272876
2.093750	14219902.826957155	107035.74459885653
2.100000	14248046.173021954	110466.66076063504
2.106250	14266022.076538259	113874.89289697557
2.112500	14272947.792876277	117236.37658811573
2.118750	14267599.865565673	120527.33851672153
2.125000	14248440.015928712	123722.59920501019
2.131250	14213655.709370736	126795.93140838317
2.137500	14203727.003851449	100608.43924681474
2.143750	14197685.01425021	100964.489773753
2.150000	14175741.987022549	101152.80283554256
2.156250	14138639.933365583	101185.77623137987
2.162500	14086882.906419057	101074.05782636753
2.168750	14020713.765879428	100825.57469015045
2.175000	13940112.372014701	100444.89149254383
2.181250	13844775.833044657	99932.777247739767
2.187500	13734155.276742598	99286.122961865112
2.193750	13607456.608148267	98498.242353843554
2.200000	13463687.588924116	97559.311587376709
2.206250	13361510.09161232	103860.20218260196
2.212500	13239703.032184783	103315.37871933216
2.218750	13102799.117649484	102707.99472470234
2.225000	12952498.634988215	102047.43829223519
2.231250	12790205.688100437	101337.00915489362
2.237500	12617017.951951008	100573.98678519826
2.243750	12433665.843139572	99749.901136767614
2.250000	12240564.438180383	98851.471581682374
2.256250	12037781.947988227	97861.495635138868
2.262500	11825092.276228327	96760.135114627425
2.268750	11585311.866959548	124565.58339625907
2.275000	11405753.245265726	122439.45844614363
2.281250	11216430.733440738	120098.25580880954
2.287500	11019244.434392806	117569.94337252698
2.293750	10815728.518582383	114880.2349671604
2.300000	10607051.581195826	112053.11181305104
2.306250	10393955.259590114	109110.38693325767
2.312500	10176829.462819241	106072.69535502153
2.318750	9955685.2180355676	102959.2041967011
2.325000	9730224.6167269498	99788.050641248847
2.331250	9499928.9594525974	96577.020755173784
2.337500	9330025.5803166814	89696.794279819864
2.343750	9127516.8097316064	88151.324034073274
2.350000	8920392.9466411583	86505.475975968875
2.356250	8709941.2570188306	84769.349711401301
2.362500	8497123.1285732444	82951.629750341337
2.368750	8282526.7482454479	81059.494378807794
2.375000	8066457.6301186411	79099.247106237512
2.381250	7848921.788215844	77076.245397975203
2.387500	7629702.5484340489	74995.188284541393
2.393750	7408447.7115266798	72860.527545375531
2.400000	7184678.9825548828	70676.126268996755
2.406250	7057536.0741097927	81979.83199117989
2.412500	6857930.8492584378	79101.995964206304
2.418750	6656497.1448313342	76226.687797201477
2.425000	6454298.639542995	73367.475514970225
2.431250	6252122.1727782562	70536.39892056286
2.437500	6050563.1279305257	67744.77378979529
