#List of files for average calculation
#C:\D+_tests\D+_Phase_1\GPU\No_Charges\V_54\Explicit_Ring_Hybrid_Solution_without_Solvation\Explicit_Ring_Hybrid_Solution_without_Solvation_1
#C:\D+_tests\D+_Phase_1\GPU\No_Charges\V_54\Explicit_Ring_Hybrid_Solution_without_Solvation\Explicit_Ring_Hybrid_Solution_without_Solvation_2
#C:\D+_tests\D+_Phase_1\GPU\No_Charges\V_54\Explicit_Ring_Hybrid_Solution_without_Solvation\Explicit_Ring_Hybrid_Solution_without_Solvation_3
#C:\D+_tests\D+_Phase_1\GPU\No_Charges\V_54\Explicit_Ring_Hybrid_Solution_without_Solvation\Explicit_Ring_Hybrid_Solution_without_Solvation_4
#C:\D+_tests\D+_Phase_1\GPU\No_Charges\V_54\Explicit_Ring_Hybrid_Solution_without_Solvation\Explicit_Ring_Hybrid_Solution_without_Solvation_5
#C:\D+_tests\D+_Phase_1\GPU\No_Charges\V_54\Explicit_Ring_Hybrid_Solution_without_Solvation\Explicit_Ring_Hybrid_Solution_without_Solvation_6
#C:\D+_tests\D+_Phase_1\GPU\No_Charges\V_54\Explicit_Ring_Hybrid_Solution_without_Solvation\Explicit_Ring_Hybrid_Solution_without_Solvation_7
#C:\D+_tests\D+_Phase_1\GPU\No_Charges\V_54\Explicit_Ring_Hybrid_Solution_without_Solvation\Explicit_Ring_Hybrid_Solution_without_Solvation_8
#C:\D+_tests\D+_Phase_1\GPU\No_Charges\V_54\Explicit_Ring_Hybrid_Solution_without_Solvation\Explicit_Ring_Hybrid_Solution_without_Solvation_9
#C:\D+_tests\D+_Phase_1\GPU\No_Charges\V_54\Explicit_Ring_Hybrid_Solution_without_Solvation\Explicit_Ring_Hybrid_Solution_without_Solvation_10
#Average Chi square (Sigma units): 1.4235546193953
#Sigma Chi square: 0.24439648150115
#Calculation was done on GPU
q [nm^-1]	Intensity [A.U]	Sigma [A.U]
0.000000	22747798583.392117	5.0862630208333331e-006
0.006250	22653058125.956703	128880.7970845581
0.012500	22363027190.566673	516619.60473141912
0.018750	21884497370.385853	1149467.4426087821
0.025000	21228610856.846039	2004874.4960252568
0.031250	20410510106.890759	3052402.3487622524
0.037500	19448865918.987991	4254952.3235763097
0.043750	18365302501.039726	5570261.0889687687
0.050000	17183733993.785461	6952612.9055819791
0.056250	15937685729.327906	4431997.1167645324
0.062500	14642568439.329971	5195013.8367262157
0.068750	13326742983.809526	5934777.4365159916
0.075000	12015903286.307411	6630736.8840836696
0.081250	10734359271.826618	7264625.6606268771
0.087500	9504382162.0704212	7821101.8821794195
0.093750	8345650272.3686953	8288256.8932273565
0.100000	7274781080.6038713	8657984.5574042425
0.106250	6305086184.7613554	4625994.5130729098
0.112500	5447547737.5690632	4631185.5597168673
0.118750	4706015040.9040279	4578950.4799653366
0.125000	4082813837.2253761	4476630.0999462828
0.131250	3576748742.5969925	4333717.0572277559
0.137500	3183364526.3211775	4161350.2488572425
0.143750	2895311753.2149858	3971648.68539258
0.150000	2705910117.5842638	6137206.9067366179
0.156250	2597379882.0390844	5806512.3438765015
0.162500	2559287004.8450642	5465587.8602482043
0.168750	2577660269.2445574	5125725.3620668547
0.175000	2638203116.8687682	4796169.9971520444
0.181250	2726825569.0265388	4483739.7998272656
0.187500	2830132703.8009729	4192806.1666649422
0.193750	2935857095.5940714	3925680.3988006338
0.200000	3033217882.2960691	3683395.4414880783
0.206250	3112076859.1563878	4116605.4437469137
0.212500	3168236596.9096179	3805097.3915215279
0.218750	3194960025.4470215	3554404.5392067512
0.225000	3189292667.9890108	3367184.9942080798
0.231250	3150274548.0962129	3243302.5239675441
0.237500	3078795949.1062613	3178895.7782076662
0.243750	2977386324.8645096	3166029.6682375986
0.250000	2849952813.2301373	3193299.2476417744
0.256250	2701493019.8258729	4158195.7532037152
0.262500	2537964816.0244174	4404865.1524707535
0.268750	2365246387.5951524	4622794.5892407224
0.275000	2189583860.7730951	4802973.8430622835
0.281250	2017010760.4258702	4938973.3939975072
0.287500	1853077021.4123757	5027016.9708252009
0.293750	1702616019.4848123	5065911.9851021171
0.300000	1570666861.5256176	2524501.6989912614
0.306250	1458034531.4123154	2506070.6621466568
0.312500	1367457759.9122262	2486919.8203460346
0.318750	1299650641.4199932	2470859.7983560921
0.325000	1254250636.2225509	2460427.3504643552
0.331250	1229903377.0902336	2456349.1219846956
0.337500	1224389332.2845149	2457388.6240217239
0.343750	1234782504.4505241	2460599.9961585789
0.350000	1257633944.3241096	2461905.0662848628
0.356250	1291754008.9866514	2388348.7548119002
0.362500	1328250259.6863828	2296137.2338932371
0.368750	1365680676.5963874	2230603.5206267191
0.375000	1400458443.7600751	2191455.1103246608
0.381250	1429397452.7806506	2175457.1815350824
0.387500	1449840852.8678584	2177248.9990564222
0.393750	1459756470.5032353	2190469.574865615
0.400000	1457796429.3076806	2208800.5238056099
0.406250	1441369058.1266236	1963599.4685643439
0.412500	1414650360.9184668	1985136.2487656088
0.418750	1376168881.1846769	2007167.5582576615
0.425000	1327202230.7504277	2028205.8743436036
0.431250	1269508321.0902693	2046563.4094054657
0.437500	1205208751.6053689	2060456.4620030627
0.443750	1136663406.761245	2068147.7573751903
0.450000	1066339355.6369174	2068100.7121423807
0.456250	997590590.51017892	1734902.9856862871
0.462500	930980984.51385093	1708362.7618461975
0.468750	869379723.52725148	1678665.2206354584
0.475000	814508943.0152967	1643312.0512635629
0.481250	767686733.98079288	1600404.804114514
0.487500	729783129.44501853	1548788.729855166
0.493750	701201377.09515262	1488112.3151362117
0.500000	681881619.37783051	1418816.9346143235
0.506250	671806832.0226748	1255392.5244769317
0.512500	669189087.13149774	1184675.5191605787
0.518750	673249569.4972949	1109129.4068384485
0.525000	682537751.34786093	1032474.6595277664
0.531250	695439731.21233022	958277.57725624356
0.537500	710266159.62551773	889580.95486598508
0.543750	725339929.65209007	828580.05889697338
0.550000	737840923.1033504	1082929.5154416012
0.556250	748948260.94178998	1101348.7115435468
0.562500	756113145.56578875	1112641.169333365
0.568750	758424373.96347094	1116604.8422273207
0.575000	755277018.52544367	1113898.6014553097
0.581250	746385972.57511759	1105862.1976811024
0.587500	731783520.13140345	1094281.1704485433
0.593750	711800231.60798705	1081098.4165750688
0.600000	687499359.36671758	1055692.8652355098
0.606250	658816341.04749751	1062374.4455771267
0.612500	627142483.46808529	1064800.5727949913
0.618750	593580174.11383665	1061306.5712733916
0.625000	559281734.42427218	1050651.9748914104
0.631250	525391172.68016529	1032190.9073116767
0.637500	492986388.10766476	1005981.3260504724
0.643750	463027671.6617322	972838.29565680854
0.650000	436317678.51479089	934327.87610471901
0.656250	414004871.38619381	424451.90169968701
0.662500	395435930.81594813	416071.99302808283
0.668750	381295461.26177025	410298.26287938684
0.675000	371543755.7467705	406802.27871376288
0.681250	365935833.07559627	405216.12548874458
0.687500	364043314.0801304	405066.24073654175
0.693750	365285511.20567423	405752.77169492847
0.700000	368965786.57480395	406578.37261701596
0.706250	374494748.72448164	1073239.4758416926
0.712500	380664437.89187282	1030905.7995747338
0.718750	386896422.64711207	986483.39523698064
0.725000	392441665.09241188	941102.25842367695
0.731250	396633042.95091033	895745.14167827473
0.737500	398914302.46786648	851230.6902394779
0.743750	398861604.84193069	808221.19906437327
0.750000	396197735.58384788	767240.43542414194
0.756250	390846646.85373038	795365.60272012651
0.762500	382734818.75323522	786539.02967514074
0.768750	372063602.15605599	774839.53999241674
0.775000	359125696.46578562	760347.20033621113
0.781250	344317706.24395287	743147.8206205098
0.787500	328115457.98505592	723322.2134662231
0.793750	311045650.23075396	700940.11650008359
0.800000	293656204.22542489	676062.56982896337
0.806250	276697797.84041458	651210.60961864248
0.812500	260218691.42799562	617561.36790876754
0.818750	244910137.17038092	581810.17243001843
0.825000	231147171.33050585	545197.28264622844
0.831250	219212957.99572238	508999.72835075884
0.837500	209290373.44377694	474435.7581159753
0.843750	201457331.80715895	442557.66715337924
0.850000	195476428.11948708	263332.09594176896
0.856250	191615443.26925164	260589.27466740942
0.862500	189488854.99284893	262006.44317118064
0.868750	188821449.98759422	267672.22012031235
0.875000	189285291.46064177	277158.45825003227
0.881250	190519033.99604553	289606.2942013882
0.887500	192147726.14230913	303904.75217602146
0.893750	193802340.62910551	318875.05888101709
0.900000	195137751.90580255	333405.68640674208
0.906250	195983823.35676152	247775.05311966161
0.912500	195781275.9539544	250387.74573503737
0.918750	194507333.57491091	250665.64725734899
0.925000	192041219.29234535	247893.42843824034
0.931250	188333240.21142626	241800.86635709176
0.937500	183403152.56392342	232561.4154004498
0.943750	177335529.04044202	220764.70497103577
0.950000	170271897.82112357	207368.69153825424
0.956250	162416918.01631552	236352.96919247304
0.962500	153948439.10233533	223343.43752680754
0.968750	145139330.96379542	210499.06445095243
0.975000	136241734.75232255	198258.45306430547
0.981250	127503146.47963783	186961.66038845279
0.987500	119154113.9164637	176802.17775102687
0.993750	111398266.76979291	167808.3153193428
1.000000	104403111.65972304	159857.99716228267
1.006250	98210449.140408292	94908.559683824715
1.012500	93048384.539745957	96225.479171579864
1.018750	88884421.561860591	100934.600656398
1.025000	85703721.764186069	108444.39564441521
1.031250	83448645.290405974	117768.50081730362
1.037500	82023678.025345787	127825.85932626401
1.043750	81302338.80249092	137631.90305295016
1.050000	81135130.708147034	146373.7208877487
1.056250	81261383.481845021	131864.93155985308
1.062500	81694849.155334562	117790.69649985076
1.068750	82179687.055677265	107628.01841452108
1.075000	82559774.949972853	101564.95373257781
1.081250	82696974.409048989	99034.629767011807
1.087500	82476741.650887504	98928.78973431974
1.093750	81812207.945244521	100038.64431014366
1.100000	80675505.405930728	158927.89015388952
1.106250	78958818.582337037	151885.71070523161
1.112500	76720985.175873518	143895.34453660707
1.118750	73994899.974749833	135128.2667247479
1.125000	70838307.866379112	125862.9250312139
1.131250	67329222.976207271	116462.23785745757
1.137500	63560833.466596469	107343.16455274912
1.143750	59636029.785378598	98933.716623916844
1.150000	55661442.26356177	91615.447742617907
1.156250	51673036.142602965	98001.179097585074
1.162500	47887631.802523091	94947.806509094851
1.168750	44346194.011427261	91660.923077867454
1.175000	41121792.051500566	88077.241009338381
1.181250	38269999.346815065	84179.106557614417
1.187500	35827667.326008014	79994.639242131627
1.193750	33812106.177423015	75592.345655691184
1.200000	32213758.577144675	53981.718991364891
1.206250	31016361.289337862	51873.906133432851
1.212500	30189840.004597194	49774.964669206631
1.218750	29685818.104239035	47873.566729597333
1.225000	29446183.051023006	46340.006014570521
1.231250	29406553.807183076	45286.642879369356
1.237500	29499783.750346757	44739.446784859654
1.243750	29659368.311223738	44631.705646662151
1.250000	29822558.401242126	44823.639354839237
1.256250	29915331.243984986	39760.995850949519
1.262500	29908284.620203018	38164.838960506306
1.268750	29764327.628360789	36943.92960145243
1.275000	29457777.261797983	36016.010340744018
1.281250	28974726.915576924	35280.205323913222
1.287500	28312809.365854509	34633.067560080694
1.293750	27480426.668459922	33980.853141103944
1.300000	26495528.467415966	33246.657426673351
1.306250	25419509.629952807	34265.456792537334
1.312500	24200444.12069859	33078.404477965967
1.318750	22923273.480629697	31839.131534756922
1.325000	21625936.944242891	30555.861503419357
1.331250	20346219.228604607	29237.214814000854
1.337500	19119777.312332749	27898.831505325095
1.343750	17978647.328102153	26570.030039397847
1.350000	16936604.974714801	20131.282069393987
1.356250	16037094.893134803	18695.486289405715
1.362500	15286034.042337483	17251.237867263499
1.368750	14690473.121506285	15905.356679945206
1.375000	14250607.991470214	14813.169889028011
1.381250	13960134.955619913	14162.194372660737
1.387500	13806959.087396836	14121.131032545156
1.393750	13774108.713789145	14765.093675768891
1.400000	13840811.754625279	16038.939789055055
1.406250	13978171.922991628	23030.458473240702
1.412500	14170347.070276206	24959.167376816291
1.418750	14388421.463213723	26808.575524290787
1.425000	14608054.33379874	28502.605307326776
1.431250	14806815.951123908	29981.426087920816
1.437500	14964980.271190003	31200.766983184913
1.443750	15066174.11490202	32131.058380246413
1.450000	15106739.70598809	28674.280041277339
1.456250	15058492.777678167	29413.492707315661
1.462500	14927053.605151031	29859.870488425448
1.468750	14711761.09895606	29995.460051637827
1.475000	14415545.235667313	29814.220114226122
1.481250	14044484.010618156	29321.224897993598
1.487500	13607274.225346843	28531.676733717519
1.493750	13114595.44563717	27469.775084831872
1.500000	12578531.428781178	26167.518638285233
1.506250	12005442.037323596	22243.898956500783
1.512500	11420092.757707018	21027.088279051182
1.518750	10829353.372836012	19878.763369056094
1.525000	10244845.974620905	18829.140864206067
1.531250	9676998.4921518806	17899.982385062027
1.537500	9134726.3462336436	17102.732696127074
1.543750	8625270.8702201359	16437.641889768343
1.550000	8154130.417798141	15894.343337713517
1.556250	7736024.351042646	16322.439458641775
1.562500	7348988.903375648	15238.556061641382
1.568750	7005919.363485503	14222.146471556782
1.575000	6706106.6014596354	13299.816022429384
1.581250	6447834.8918236615	12496.90385704873
1.587500	6228618.6822419837	11835.085854594281
1.593750	6045487.2255257983	11329.309069710738
1.600000	5895204.7671533301	10984.585805250688
1.606250	5768776.6298335474	12077.463513007931
1.612500	5673246.1390240444	12047.4575927613
1.618750	5601029.3987339232	12148.946604705799
1.625000	5549827.2106928024	12334.043702440431
1.631250	5517797.5070730047	12556.456099143619
1.637500	5503561.1790298074	12774.910061085237
1.643750	5506167.2096921708	12954.872565761263
1.650000	5525026.3207201017	13069.133449664545
1.656250	5557985.1952644447	7107.80654098169
1.662500	5609741.4442511369	6516.8424885821487
1.668750	5677936.0325589217	6168.0094335494023
1.675000	5762520.1716565993	6105.7449576264808
1.681250	5863250.7588862292	6327.0176028968854
1.687500	5979581.6420353856	6781.3844040141239
1.693750	6110591.8220526753	7395.8654604577605
1.700000	6250803.9198671514	9761.1197097000222
1.706250	6410832.4855499482	9724.3662099865978
1.712500	6580900.518368734	9684.7703129518013
1.718750	6758282.8619830785	9647.526017668175
1.725000	6939877.3948111255	9617.3405850163344
1.731250	7122282.6773829479	9598.9047743714564
1.737500	7301893.8274750235	9597.3988218452778
1.743750	7475028.4594921246	9619.0550972865622
1.750000	7638026.2998983916	9671.4628938706664
1.756250	7799304.4473449616	8999.4031705028374
1.762500	7938220.7033245284	9256.5950698153192
1.768750	8057362.5408832924	9522.5769159051688
1.775000	8154315.8045756612	9783.327732839678
1.781250	8227240.5712506175	10026.204177807514
1.787500	8274939.5533735575	10240.8324858949
1.793750	8296890.9791599046	10419.530274209132
1.800000	8293259.8968130024	10557.575553119483
1.806250	8276646.1027884502	9552.5085532891117
1.812500	8231833.8650303828	9258.5736163591519
1.818750	8165484.4879325433	8967.0582315426691
1.825000	8080208.7977085765	8697.5421895313357
1.831250	7979041.0516518746	8473.113083969909
1.837500	7865322.6982283713	8318.8527948208703
1.843750	7742598.6570940018	8259.0586291625805
1.850000	7614491.7657080349	8313.3868265862329
1.856250	7488924.9056154713	6676.7777779750222
1.862500	7366238.6683895309	7160.1023918363871
1.868750	7248296.4433121327	7716.5510118062748
1.875000	7138049.9846884785	8297.767593773191
1.881250	7038030.0866604801	8872.3706155026248
1.887500	6950291.229379097	9422.5672889462367
1.893750	6876374.4411432818	9940.3509274453481
1.900000	6817283.1926994054	10424.14308159995
1.906250	6776455.7252503382	11342.033712323051
1.912500	6754447.4539162666	11881.714997739629
1.918750	6747262.4190771878	12343.185241704858
1.925000	6753964.7356536519	12717.111960011331
1.931250	6773237.3440505099	12999.031260015474
1.937500	6803451.905620018	13188.680943979785
1.943750	6842745.1739826621	13289.349660681073
1.950000	6889951.4100707415	11274.492100376456
1.956250	6946825.7919116542	11264.18305165942
1.962500	7006510.3433211911	11292.779372490013
1.968750	7066978.1769966083	11349.005153442353
1.975000	7126321.8693066565	11420.107548465763
1.981250	7182802.3783517033	11492.924368283933
1.987500	7234886.8608152997	11554.856392080781
1.993750	7281279.4470651504	11594.614447278966
2.000000	7320930.3854248524	11602.741440213149
2.006250	7351011.1298665944	8214.8491614186423
2.012500	7380723.797492737	7975.9107735740026
2.018750	7401867.3494681809	8009.6831583928479
2.025000	7414358.4298282787	8275.2888373113092
2.031250	7418298.9743868206	8699.2468421350495
2.037500	7413949.1455798149	9200.1037893150551
2.043750	7401691.682959239	9705.9296033009177
2.050000	7382002.2686838983	10161.33535665534
2.056250	7361062.5024003014	10011.908816111641
2.062500	7333535.0820507826	10107.37751868741
2.068750	7300020.9533444094	10171.963264062117
2.075000	7261111.5770778628	10198.069348714867
2.081250	7217386.6482732389	10179.793746687779
2.087500	7169395.4959779587	10113.275104667153
2.093750	7117667.4639454084	9996.7908084130868
2.100000	7062700.6865585018	9830.5177697541294
2.106250	7001383.2782639265	9119.1620148687889
2.112500	6946384.9876974402	9183.1836190778467
2.118750	6889474.7387154056	9226.0731719264804
2.125000	6831126.43618978	9254.2580389344439
2.131250	6771809.8380884454	9278.7602225643805
2.137500	6712001.1187819038	9312.8423780597932
2.143750	6652191.2841224903	9369.419242950944
2.150000	6597485.4079845939	14172.670033137736
2.156250	6543468.9071569163	13686.976874513539
2.162500	6490651.6975585958	13161.161936238135
2.168750	6439521.3878297992	12603.775461764513
2.175000	6390534.1258242084	12023.569695564622
2.181250	6344083.4119355828	11429.092969272049
2.187500	6300496.4287548289	10828.7011322377
2.193750	6260003.0716701699	10230.349611509158
2.200000	6223467.421127649	10313.75395879682
2.206250	6194300.3643065365	9974.9485893429955
2.212500	6167933.2196848802	9612.8764353900187
2.218750	6144083.7432206627	9220.1431994397117
2.225000	6122329.2152894409	8792.2695108038879
2.231250	6102115.7855666112	8329.3401063095971
2.237500	6082772.3409151919	7837.6267030656873
2.243750	6063523.0146321142	7331.0606136583829
2.250000	6043516.3601453286	6832.6645703704444
2.256250	6024373.6196659328	8000.0097407254398
2.262500	6003896.0394422868	7937.5932361836049
2.268750	5979667.903052181	7918.7712768035944
2.275000	5950820.4229177283	7954.9723078907873
2.281250	5916573.8260875512	8052.3344535861761
2.287500	5876262.7017185586	8210.0793483392208
2.293750	5829367.319888996	8420.1506573968327
2.300000	5775544.1102318782	8668.1701748336836
2.306250	5713147.6771211494	10096.645428241725
2.312500	5648153.2568895835	9778.3376703609429
2.318750	5576070.6016804958	9356.0314539428218
2.325000	5497349.689246905	8849.903956020702
2.331250	5412637.6864235494	8287.4774429186746
2.337500	5322737.8662940292	7703.7953815038973
2.343750	5228609.0129639683	7141.2925316482779
2.350000	5131309.9702217933	6647.8614082139629
2.356250	5030588.9838032452	5402.4140168826016
2.362500	4932560.7710735882	4897.9187780881675
2.368750	4834672.9602099378	4499.6284205114371
2.375000	4738060.8457155861	4274.0149829151114
2.381250	4643762.6245896006	4264.5873150068282
2.387500	4552696.1695716036	4466.947691522616
2.393750	4465639.2077511111	4830.8052103715445
2.400000	4385161.6378204217	9615.9114427344557
2.406250	4309324.8605549578	9372.5702972050985
2.412500	4238464.6531329015	9079.5688317459171
2.418750	4172619.4773378423	8746.1067883711803
2.425000	4111643.5897308006	8383.6887103576155
2.431250	4055203.7307603112	8005.7292914874088
2.437500	4002818.540049742	7627.2743529573318
2.443750	3953869.7578552561	7264.3046024969362
