#List of files for average calculation
#C:\D+_tests\D+_Phase_1\GPU\No_Charges\V_54\Implicit_Ring_DOL_Solution_with_Solvation\Implicit_Ring_DOL_Solution_with_Solvation_1
#C:\D+_tests\D+_Phase_1\GPU\No_Charges\V_54\Implicit_Ring_DOL_Solution_with_Solvation\Implicit_Ring_DOL_Solution_with_Solvation_2
#C:\D+_tests\D+_Phase_1\GPU\No_Charges\V_54\Implicit_Ring_DOL_Solution_with_Solvation\Implicit_Ring_DOL_Solution_with_Solvation_3
#C:\D+_tests\D+_Phase_1\GPU\No_Charges\V_54\Implicit_Ring_DOL_Solution_with_Solvation\Implicit_Ring_DOL_Solution_with_Solvation_4
#C:\D+_tests\D+_Phase_1\GPU\No_Charges\V_54\Implicit_Ring_DOL_Solution_with_Solvation\Implicit_Ring_DOL_Solution_with_Solvation_5
#C:\D+_tests\D+_Phase_1\GPU\No_Charges\V_54\Implicit_Ring_DOL_Solution_with_Solvation\Implicit_Ring_DOL_Solution_with_Solvation_6
#C:\D+_tests\D+_Phase_1\GPU\No_Charges\V_54\Implicit_Ring_DOL_Solution_with_Solvation\Implicit_Ring_DOL_Solution_with_Solvation_7
#C:\D+_tests\D+_Phase_1\GPU\No_Charges\V_54\Implicit_Ring_DOL_Solution_with_Solvation\Implicit_Ring_DOL_Solution_with_Solvation_8
#C:\D+_tests\D+_Phase_1\GPU\No_Charges\V_54\Implicit_Ring_DOL_Solution_with_Solvation\Implicit_Ring_DOL_Solution_with_Solvation_9
#C:\D+_tests\D+_Phase_1\GPU\No_Charges\V_54\Implicit_Ring_DOL_Solution_with_Solvation\Implicit_Ring_DOL_Solution_with_Solvation_10
#Average Chi square (Sigma units): 1.405179869256
#Sigma Chi square: 0.22051372002264
#Calculation was done on GPU
q [nm^-1]	Intensity [A.U]	Sigma [A.U]
0.000000	32774135046.733521	0
0.006250	32752139995.749981	121899.91666862951
0.012500	32395476761.908211	184056.68826036251
0.018750	31725268123.895191	459731.19750969688
0.025000	30767368119.166859	984672.71801731933
0.031250	29551704895.589027	1728901.9902254476
0.037500	28111670808.623028	2677620.6577206487
0.043750	26483559764.05653	3816088.840321721
0.050000	24706051806.27898	5126168.5802446352
0.056250	22977242764.249451	4587887.4262538021
0.062500	21116967476.331104	5591210.817551286
0.068750	19190272103.980202	6629690.2464015707
0.075000	17256786759.862392	7654904.8947889227
0.081250	15368965269.940311	8626006.3297620043
0.087500	13570686254.155163	9511594.5233391523
0.093750	11896304817.354094	10290355.272805894
0.100000	10370154850.463722	10950761.600676583
0.106250	9021178470.1324806	10867707.759193689
0.112500	7801057554.4492216	11049407.338842485
0.118750	6735701616.8613119	11092905.026947228
0.125000	5838064249.7498827	11006710.911585821
0.131250	5112017946.3843851	10806323.515159518
0.137500	4552664104.1078243	10513174.861512493
0.143750	4146948471.9593749	10153060.25168813
0.150000	3874582042.7342696	9753989.919482531
0.156250	3733206652.2711363	5334936.4972297568
0.162500	3689630824.2296195	5144547.8430890404
0.168750	3725924367.5678391	4962851.2943571946
0.175000	3821711737.5332537	4795074.3485144908
0.181250	3955429857.9839735	4643494.3456170605
0.187500	4104945283.6082268	4507684.9112123009
0.193750	4248242143.1961756	4385116.2747354759
0.200000	4364180863.9640522	4272027.5521556614
0.206250	4501271800.6221247	4240486.4758388586
0.212500	4591488577.7552443	4050486.1903753085
0.218750	4629780626.3744135	3884752.4349958478
0.225000	4614556217.2133465	3733924.940301952
0.231250	4546711532.658432	3592030.591436395
0.237500	4429137604.4904146	3456476.2181842448
0.243750	4266279080.3519936	3327394.7644056501
0.250000	4063744818.9413962	3206661.506769781
0.256250	3877747330.85008	4187908.1317633502
0.262500	3652311612.7447748	3951907.3477020492
0.268750	3402158160.3163338	3708753.5126364394
0.275000	3141963421.5617723	3469931.5525497836
0.281250	2884795391.0675793	3246397.3308179947
0.287500	2641447794.475029	3047816.0578524149
0.293750	2419967862.2134347	2881648.1346404194
0.300000	2225377692.5012937	2752125.0518348906
0.306250	2078045181.105587	2645130.0360997147
0.312500	1954250912.7429309	2507839.5052553643
0.318750	1858516457.4848018	2357014.8170950734
0.325000	1793222905.3658957	2199223.7308916445
0.331250	1757871562.7688489	2043125.588775574
0.337500	1749155622.7160041	1898453.7364487804
0.343750	1761187083.6003156	1774314.1925085927
0.350000	1785878916.355355	1676917.737563238
0.356250	1836511816.685163	2963444.8149927408
0.362500	1889895942.5217094	2954149.2083826917
0.368750	1942290778.1296425	2939479.1942046052
0.375000	1989563655.1630845	2915215.0580921462
0.381250	2027490898.9027886	2878230.3323792014
0.387500	2051868093.3331521	2826943.6979021118
0.393750	2058657773.5255649	2761488.3635028778
0.400000	2044174545.328115	2683627.752512902
0.406250	2033928139.5374184	2122295.2659831666
0.412500	1997886286.9283402	2050449.7005666106
0.418750	1940748945.7304111	1997512.3479286972
0.425000	1866503328.1482215	1964032.3216155025
0.431250	1779283760.0021358	1948729.8815140266
0.437500	1683095960.5772297	1948318.7468324678
0.443750	1581597117.2970994	1957931.0578640704
0.450000	1477931755.2225387	1971938.0810222141
0.456250	1388871991.9438257	1886311.8888272757
0.462500	1298579398.2659013	1922547.2006000078
0.468750	1211796431.4681022	1950355.8338400484
0.475000	1133064783.1876252	1963596.6080877932
0.481250	1065579838.835448	1957670.5322857071
0.487500	1011046854.7874298	1929959.5913435298
0.493750	969632674.25725961	1880021.0926888294
0.500000	940012981.8512646	1809573.3861045004
0.506250	928894944.53998816	1826371.8084003024
0.512500	926536942.29665065	1835035.5438474917
0.518750	931988377.69185758	1846092.1288941083
0.525000	944053509.01975083	1857763.2875033969
0.531250	960764804.03168797	1868370.9370375897
0.537500	979464881.3264643	1876166.6775255078
0.543750	996936826.866189	1879179.1869075422
0.550000	1009582885.6178119	1875147.3865665495
0.556250	1027739491.5277151	966690.38657894323
0.562500	1037310948.259306	964413.99702936586
0.568750	1038412901.9225447	977237.28425829532
0.575000	1031065227.5245159	1000979.4283567929
0.581250	1015440761.773333	1031004.8999719261
0.587500	991810512.19455218	1062808.9187351982
0.593750	960508746.70282841	1092401.5127953871
0.600000	921917963.62880838	1116509.7485738972
0.606250	887564573.18183327	1655921.7838568259
0.612500	845381529.95375872	1622603.9879112032
0.618750	798512895.19562137	1583373.7470631371
0.625000	749759061.03788137	1536998.9559606405
0.631250	701540879.4750706	1483287.8863439877
0.637500	655770067.98633194	1422972.7427720027
0.643750	613763233.9032737	1357531.0126038874
0.650000	576199517.52514791	1288961.5210341143
0.656250	548844109.0669421	1066965.8820108604
0.662500	524826738.86993563	1025432.020686966
0.668750	505550304.71218729	979075.08758083801
0.675000	491684917.06565875	929657.33636116423
0.681250	483267289.52952975	879237.78293005598
0.687500	479701327.5156852	829905.07991696382
0.693750	479798000.0303995	783456.36203802598
0.700000	481854494.55221432	741082.42351537757
0.706250	490058086.8408922	682449.70376173814
0.712500	497878084.62205541	660220.92665868381
0.718750	504960158.85315484	637637.26108865102
0.725000	510696583.47123182	615503.13646244956
0.731250	514398219.88187063	594779.3366510066
0.737500	515308182.20698059	576535.35519856482
0.743750	512629422.02789801	561822.05091425194
0.750000	505566232.62381697	551470.64354025922
0.756250	499706834.35656232	524233.65680251596
0.762500	488790702.43214786	528389.70739763789
0.768750	473478656.78316486	533853.25842291303
0.775000	454741603.40231198	539043.68492252694
0.781250	433527412.42728853	542384.56889831892
0.787500	410698458.61053813	542452.24744446413
0.793750	386985309.0525068	538094.15452219907
0.800000	362956558.19841826	528515.1844790203
0.806250	343021762.57952648	564664.32862650964
0.812500	322294044.0835166	545039.60776404676
0.818750	302231863.41740656	526170.98300760891
0.825000	283829438.91982377	509149.50883976906
0.831250	267774746.44930092	494790.90573431377
0.837500	254416636.81931239	483406.98651671846
0.843750	243754764.36245543	474690.80984195962
0.850000	235452326.6237902	467753.50638783444
0.856250	231562758.77617025	457647.21036041627
0.862500	228956402.55302128	442720.40287540457
0.868750	227734072.47953615	424523.29527915112
0.875000	227725266.78028089	403560.10850168573
0.881250	228592334.4204163	380554.18114912248
0.887500	229842158.438775	356441.64657475095
0.893750	230849643.82986277	332347.44388984441
0.900000	230893009.97478428	309531.8753209156
0.906250	232150645.29745656	387002.87096695235
0.912500	231744059.08762079	361254.12439044792
0.918750	229566588.64080462	332954.56731501623
0.925000	225708747.77471194	303114.63921811909
0.931250	220277206.49979019	272846.35097208631
0.937500	213378700.13171059	243323.51862691899
0.943750	205109808.40029955	215726.53428971025
0.950000	195552604.55492043	191160.55336936744
0.956250	187143451.24508062	252630.7359235482
0.962500	177177515.45341307	239523.31291168922
0.968750	166316798.83665696	227344.49569621324
0.975000	155144434.80592811	216204.92901053641
0.981250	144158189.26346466	206039.8609028194
0.987500	133743310.79576489	196661.22946749622
0.993750	124155182.3389812	187837.55479299321
1.000000	115511774.31656627	179380.56108607957
1.006250	108980930.88999708	143424.85394287575
1.012500	103052542.28373685	135692.36196441425
1.018750	97989036.065405458	128053.92100031575
1.025000	93938749.568832904	120687.44023480162
1.031250	90931683.164008066	113756.63646938729
1.037500	88877828.133947611	107406.61598160496
1.043750	87573307.448300794	101747.27173698127
1.050000	86714329.433692038	96824.372555801296
1.056250	87123529.289489686	128916.9285659796
1.062500	87404881.564755648	125834.1816215852
1.068750	87561580.115334347	124194.386790904
1.075000	87513135.390255347	123271.54655699896
1.081250	87164741.97127679	122382.04088418761
1.087500	86407149.680879176	121007.03525865854
1.093750	85119459.570811912	118841.10563178164
1.100000	83174844.791192159	115789.47575407605
1.106250	81546571.797775194	101048.51225191896
1.112500	79046126.644692734	100902.91254726196
1.118750	75812364.538314596	101875.66446918968
1.125000	72022837.449428678	103477.85523608599
1.131250	67850605.596414238	105298.53739399009
1.137500	63452345.562186107	106997.74743115017
1.143750	58959595.014138639	108301.22694795587
1.150000	54473134.027091064	108999.30929656075
1.156250	50635349.254758403	64603.067967574774
1.162500	46717273.020815656	60782.651058397059
1.168750	42895347.583607763	56628.233098587996
1.175000	39338224.838761061	52285.58786745277
1.181250	36168753.941549018	47946.417739956632
1.187500	33457974.667323232	43843.569110744451
1.193750	31222781.756096683	40232.644075415206
1.200000	29427260.241276693	37348.919252885913
1.206250	28308797.378460545	23096.14082336966
1.212500	27444865.626489896	22406.79474561899
1.218750	26831869.903033335	22130.670208483869
1.225000	26454908.343016334	22144.471301091329
1.231250	26276379.710510097	22323.064683358094
1.237500	26236734.167662773	22558.093955528951
1.243750	26256956.191452794	22762.669488278589
1.250000	26242779.638264224	22867.292254534543
1.256250	26455988.095168378	33094.553067529851
1.262500	26482863.013397604	34699.685673386019
1.268750	26321742.066515069	36074.749754260716
1.275000	25980682.309310261	37103.028164160176
1.281250	25471342.562614534	37711.026139666821
1.287500	24806343.870781548	37860.273263415169
1.293750	23997458.031501029	37538.69664672199
1.300000	23054624.197945643	36752.86290696272
1.306250	22253688.162220079	33496.203074070843
1.312500	21272774.509977479	31358.249148599498
1.318750	20172399.271007888	28881.628231362898
1.325000	19020096.751296617	26158.564086222268
1.331250	17875877.850815102	23281.673159203703
1.337500	16788631.192853436	20345.188051519712
1.343750	15793675.596153792	17449.816065611383
1.350000	14911463.889845988	14712.261837097229
1.356250	14279371.770681355	20282.722804877183
1.362500	13711693.354579126	18821.550525053837
1.368750	13236090.353337344	17706.4557813383
1.375000	12870976.570391927	17025.391309308885
1.381250	12623259.141914228	16810.269460957141
1.387500	12487806.755422086	17019.450443115049
1.393750	12447728.192403192	17545.839235413827
1.400000	12475461.194950834	18245.255709514498
1.406250	12652629.286861923	22164.829478464799
1.412500	12843652.565594852	22548.247732013479
1.418750	13035025.94276662	22905.35190071354
1.425000	13213688.737720115	23193.752794812943
1.431250	13365476.7137418	23375.411953195409
1.437500	13475084.269580072	23417.148391730054
1.443750	13526305.452640381	23291.082696201192
1.450000	13502553.793857196	22975.069267580566
1.456250	13517131.101083418	27462.198654945416
1.462500	13444896.819539657	27674.759893583265
1.468750	13280453.00824229	27641.613968049536
1.475000	13032676.085012184	27373.348224471749
1.481250	12711434.898666907	26882.870041529055
1.487500	12326674.435958125	26184.476872230116
1.493750	11887743.385369062	25293.3059653489
1.500000	11402965.557771577	24225.113660334129
1.506250	10998268.300681647	23000.647503301479
1.512500	10530958.701356681	21258.621905584947
1.518750	10032270.554042088	19380.58804265596
1.525000	9519071.8894488122	17434.00856897343
1.531250	9005676.4296942875	15480.403499270466
1.537500	8503291.6139038578	13574.143633505049
1.543750	8019735.1145304125	11761.771143694948
1.550000	7559419.8443923369	10081.854346933625
1.556250	7184441.3459363487	12546.07886885894
1.562500	6834906.3976495694	11659.707117752199
1.568750	6513838.8787105586	10814.699891481674
1.575000	6227491.763656457	10023.826927117325
1.581250	5979362.3381730113	9294.1109280602941
1.587500	5770158.0593837006	8626.3920864125594
1.593750	5597929.752042748	8015.5635029721443
1.600000	5458372.1406323118	7451.6627649640031
1.606250	5400393.5627227863	4214.2043502506485
1.612500	5374329.8771053366	4374.6710424182347
1.618750	5382305.5133608924	4573.5850150558072
1.625000	5425017.0023700241	4793.9005967335388
1.631250	5501084.9426530683	5022.6982311082975
1.637500	5607011.1628018692	5251.1008383801809
1.643750	5737269.9182140185	5473.4336602785988
1.650000	5884533.1221295362	5685.9945859634372
1.656250	6113869.3861224726	5850.7033613438489
1.662500	6359404.6466626292	6351.6354673694486
1.668750	6624019.5821056971	6986.8979928624076
1.675000	6905530.2769171819	7748.1552905884228
1.681250	7199415.9098468078	8612.3664158398515
1.687500	7498820.9622655045	9545.2073954544212
1.693750	7794717.2553829299	10504.699454069723
1.700000	8076225.816345768	11444.141831680225
1.706250	8428371.9658989608	12696.404950151307
1.712500	8767991.8002948947	12893.301335096598
1.718750	9093688.5787364393	13043.777982332993
1.725000	9401880.6904769503	13175.098464298853
1.731250	9687108.6603246536	13312.906953789756
1.737500	9942130.0580923147	13477.366903076741
1.743750	10158169.484977705	13679.595415115667
1.750000	10325323.636875153	13919.271806315939
1.756250	10540495.914771533	11376.825001003004
1.762500	10719146.227978686	11279.664854949357
1.768750	10856296.128294995	11150.310701654527
1.775000	10954130.223741423	11006.819162182792
1.781250	11013350.669757031	10864.964920710712
1.787500	11033122.022042712	10736.002318969637
1.793750	11011169.100335298	10625.016528499398
1.800000	10944027.863111895	10530.349469576518
1.806250	10941024.536710419	9317.9121730894076
1.812500	10896903.415836597	10689.107250520625
1.818750	10825062.933122471	12098.427238426477
1.825000	10733914.477561479	13472.64607815791
1.831250	10629220.480005648	14749.533329629912
1.837500	10513902.463569459	15877.33286739239
1.843750	10388046.149847221	16814.273268154204
1.850000	10249103.620944012	17528.296055899893
1.856250	10186109.96342824	16654.56207897453
1.862500	10119829.003678109	16947.280346474588
1.868750	10054489.062840728	17196.661050574858
1.875000	9995960.130154293	17380.701111899274
1.881250	9946400.9053303953	17479.156821615907
1.887500	9904206.3407257739	17476.240326327032
1.893750	9864184.0864736047	17362.125930519887
1.900000	9817959.8385743722	17133.324433193764
1.906250	9864847.638533473	20873.155631593811
1.912500	9894950.5242119711	20989.088508009867
1.918750	9922752.3875229917	21008.871342770122
1.925000	9949694.6886343006	20946.421215101283
1.931250	9974158.1995540839	20810.369031066853
1.937500	9991503.7417579498	20602.121972460296
1.943750	9994322.236252239	20314.8454828869
1.950000	9972894.0660735555	19933.679819823359
1.956250	10017118.648553099	8554.3243433647076
1.962500	10040909.480974965	8016.9563106546348
1.968750	10044850.047544351	7458.0440672355926
1.975000	10032688.907397192	6906.354728513008
1.981250	10005769.677166093	6395.5536518077333
1.987500	9962906.2394671142	5961.8757215170235
1.993750	9900460.2982337717	5638.7429055150988
2.000000	9812621.280898165	5448.3479680813962
2.006250	9795711.0243694484	10538.927967299855
2.012500	9751862.9518499635	10476.381902931445
2.018750	9691435.33401265	10407.864327082032
2.025000	9621150.0550587066	10355.961896274659
2.031250	9544776.1835937463	10335.410952363474
2.037500	9462919.1394782476	10351.26587072079
2.043750	9373039.8534761295	10398.579602071541
2.050000	9269703.9197015539	10463.688479920735
2.056250	9240125.7258342206	13244.358143286165
2.062500	9194714.7185079269	13319.115912301773
2.068750	9140968.5307757147	13371.847160838064
2.075000	9083758.017306108	13384.974567044615
2.081250	9024829.7405402493	13341.275356856901
2.087500	8962702.9864521511	13225.652750246552
2.093750	8892794.8869300187	13026.435839217065
2.100000	8807773.6487785392	12736.268550353094
2.106250	8793553.6599560007	12014.56691737533
2.112500	8756309.3239585981	12097.835616932618
2.118750	8705056.6678324379	12191.595903172458
2.125000	8643743.17841658	12297.447450714199
2.131250	8573879.8610030152	12407.15035426662
2.137500	8494434.3971550018	12504.936280025027
2.143750	8401922.5335403252	12570.710860952637
2.150000	8290697.7017794102	12583.3586204363
2.156250	8241999.3469630228	9731.2938999615744
2.162500	8168259.8003909159	9990.0178824507511
2.168750	8079155.9259973885	10228.398712950004
2.175000	7980544.0639186529	10445.156267039334
2.181250	7875989.615882501	10634.55415854449
2.187500	7766555.1457619388	10787.578064897749
2.193750	7650782.4038712056	10893.44575986489
2.200000	7524868.2750042202	10941.115856092525
2.206250	7460042.8083866667	8654.8547510294957
2.212500	7380728.3092874158	9018.5272088250476
2.218750	7294493.497744875	9319.2716958810488
2.225000	7206606.7282361705	9557.5498507709926
2.231250	7119780.3122065561	9739.1144449346284
2.237500	7033997.3325798512	9872.1310288120931
2.243750	6946535.7564649405	9964.3558475914942
2.250000	6852189.8460583286	10020.581477797761
2.256250	6811621.6348112347	7502.7182504998764
2.262500	6761390.7582665589	7250.3761587816443
2.268750	6703328.4434199724	7047.1925571705597
2.275000	6640459.1830977369	6890.2309101777582
2.281250	6573698.3483964931	6775.8465979820248
2.287500	6501760.2534436602	6699.442688693498
2.293750	6421237.207264279	6654.9081056553805
2.300000	6326849.5527543044	6634.0053768775488
2.306250	6276857.3053681776	10350.93761918818
2.312500	6207730.7532576825	10692.121101173261
2.318750	6123864.1188404681	10924.535380212952
2.325000	6029108.1113768369	11047.285425642347
2.331250	5925782.6019296851	11063.308305352739
2.337500	5814528.7137362678	10978.747948136755
2.343750	5694306.4748929134	10802.157558310679
2.350000	5562538.0333525548	10543.597518612227
2.356250	5476864.5886238273	6444.151846750914
2.362500	5370949.0455051977	6507.3907207185857
2.368750	5255520.8587161908	6528.2517009051835
2.375000	5135792.0242349021	6501.001308350048
2.381250	5015311.5024821963	6423.4547575173146
2.387500	4895774.9683116386	6296.1754858996146
2.393750	4776978.9688993758	6121.7315954696378
2.400000	4656919.4895338882	5904.0911299143454
2.406250	4579207.3973557008	5647.8029389401645
2.412500	4495877.7819735948	5512.7595922401506
2.418750	4411786.4776185621	5308.513659855731
2.425000	4330407.1411451297	5044.9979161961219
2.431250	4253460.8016529931	4736.8256903474839
2.437500	4180807.0933645368	4403.596497098848
2.443750	4110471.5450527258	4069.8155508008949
2.450000	4038808.9260194809	3763.7502745335019
2.456250	4003103.2242289213	5764.4290807962161
2.462500	3961442.8278944446	5576.785413617984
2.468750	3916076.6160852099	5393.5549514470322
