#List of files for average calculation
#C:\D+_tests\Symmetry\GPU\Without_Hydration\Single_PDB_Implicit_No_Charges_Without_Hydration_VEGAS\Single_PDB_Implicit_No_Charges_Without_Hydration_VEGAS_1
#C:\D+_tests\Symmetry\GPU\Without_Hydration\Single_PDB_Implicit_No_Charges_Without_Hydration_VEGAS\Single_PDB_Implicit_No_Charges_Without_Hydration_VEGAS_2
#C:\D+_tests\Symmetry\GPU\Without_Hydration\Single_PDB_Implicit_No_Charges_Without_Hydration_VEGAS\Single_PDB_Implicit_No_Charges_Without_Hydration_VEGAS_3
#C:\D+_tests\Symmetry\GPU\Without_Hydration\Single_PDB_Implicit_No_Charges_Without_Hydration_VEGAS\Single_PDB_Implicit_No_Charges_Without_Hydration_VEGAS_4
#C:\D+_tests\Symmetry\GPU\Without_Hydration\Single_PDB_Implicit_No_Charges_Without_Hydration_VEGAS\Single_PDB_Implicit_No_Charges_Without_Hydration_VEGAS_5
#C:\D+_tests\Symmetry\GPU\Without_Hydration\Single_PDB_Implicit_No_Charges_Without_Hydration_VEGAS\Single_PDB_Implicit_No_Charges_Without_Hydration_VEGAS_6
#C:\D+_tests\Symmetry\GPU\Without_Hydration\Single_PDB_Implicit_No_Charges_Without_Hydration_VEGAS\Single_PDB_Implicit_No_Charges_Without_Hydration_VEGAS_7
#C:\D+_tests\Symmetry\GPU\Without_Hydration\Single_PDB_Implicit_No_Charges_Without_Hydration_VEGAS\Single_PDB_Implicit_No_Charges_Without_Hydration_VEGAS_8
#C:\D+_tests\Symmetry\GPU\Without_Hydration\Single_PDB_Implicit_No_Charges_Without_Hydration_VEGAS\Single_PDB_Implicit_No_Charges_Without_Hydration_VEGAS_9
#C:\D+_tests\Symmetry\GPU\Without_Hydration\Single_PDB_Implicit_No_Charges_Without_Hydration_VEGAS\Single_PDB_Implicit_No_Charges_Without_Hydration_VEGAS_10
#Average Chi square (Sigma units): 1.5233508739372
#Sigma Chi square: 0.243139155942
#Calculation was done on GPU
q [nm^-1]	Intensity [A.U]	Sigma [A.U]
0.000000	43448519675.18895	8.0420879622608936e-006
0.006250	43465925664.905418	143821.11567909704
0.012500	43390464003.285133	1255865.9480886012
0.018750	43225197416.089966	1466963.8693513866
0.025000	42972832016.976501	945154.94218318874
0.031250	42634767495.543777	3074178.4224264296
0.037500	42216166124.104843	3095576.4156514076
0.043750	41719462041.48027	1589710.0165317045
0.050000	41149784577.459961	594692.34786527965
0.056250	40506282889.41716	4614437.9859636035
0.062500	39801656130.135597	1044560.2552134998
0.068750	39070227146.235367	1090600.4786523457
0.075000	38342238651.485641	6105420.0217259796
0.081250	37559001358.557518	1502889.2794498745
0.087500	36710754457.898453	6591888.9483976038
0.093750	35819884592.466331	2526300.8423670693
0.100000	34883154719.632706	3522257.2967376788
0.106250	33909732558.382404	3305637.2218623902
0.112500	32906815810.173775	5486941.7841560142
0.118750	31881582906.22118	6119334.3432255154
0.125000	30840543881.115257	3215946.6971767349
0.131250	29785466464.639812	3445381.0988336941
0.137500	28757194072.400085	1644871.9258093163
0.143750	27725457418.5998	11312928.427135834
0.150000	26688289854.538937	4905193.8937167302
0.156250	25647692205.408897	2724043.8086225386
0.162500	24604891589.831444	4713279.4668536047
0.168750	23569558985.002266	4938312.7939747116
0.175000	22546335974.501106	4847668.9301052112
0.181250	21541126201.523205	4554924.5252852207
0.187500	20558098683.305321	2930034.7483200361
0.193750	19599944986.630932	4369282.2479395624
0.200000	18671236875.352276	2501768.3427741094
0.206250	17787660324.955257	3471990.0063810041
0.212500	16923030027.685246	6333690.6485178387
0.218750	16084569452.618536	7121182.8229686646
0.225000	15276377439.43491	4645447.6859664097
0.231250	14496633699.112274	3501195.8100626194
0.237500	13747310960.050808	3511096.7969980552
0.243750	13030388133.70384	3525200.1579562705
0.250000	12346500261.327311	3542598.0755415955
0.256250	11696263722.235071	3569254.2248948729
0.262500	11079295649.045547	3599644.9228530577
0.268750	10495979372.686029	3644932.5429709801
0.275000	9941834647.756403	3619967.8165985825
0.281250	9415349962.245512	3628590.4208045215
0.287500	8916032981.0977001	3639406.0540031721
0.293750	8442891405.6040144	3922639.610815146
0.300000	7995854904.0159254	4055983.878820478
0.306250	7573805797.2499466	3219086.6236260897
0.312500	7174405197.1984653	3777288.3962290427
0.318750	6798058877.5066881	3755537.5892063784
0.325000	6442458341.1779842	3956660.4862591024
0.331250	6107216136.7424021	3726053.3106708671
0.337500	5790402950.8936863	2665771.9104604316
0.343750	5489723520.7638798	3045737.482446475
0.350000	5205051384.8120165	2392897.0988027784
0.356250	4933849408.9597187	2446538.0658000871
0.362500	4676218170.0039835	2570451.9720112309
0.368750	4430737130.7343082	2259062.9601911311
0.375000	4196654459.0879631	2188226.0490230508
0.381250	3973585261.1374831	2142534.9302608958
0.387500	3760438902.4439378	2069647.0030689272
0.393750	3556889305.9596391	1954787.1080086315
0.400000	3362231255.872489	1860534.8157581582
0.406250	3177866057.5325184	1159306.1109477358
0.412500	3000410867.9622774	1167906.4747154322
0.418750	2829239451.2145562	1238163.2380300725
0.425000	2665051455.723433	1158409.1974726606
0.431250	2507062607.2442765	1151507.4368964082
0.437500	2355141770.8513732	1240619.8168645371
0.443750	2209986358.117353	964146.93160070258
0.450000	2070755923.5196807	1030459.1514402971
0.456250	1938231487.9780502	1251379.2734226929
0.462500	1812207988.4143386	1200599.0364616474
0.468750	1692189481.5180116	1378305.6393693073
0.475000	1578774547.9238868	1349287.0787163414
0.481250	1470811166.6921952	1289794.3228875322
0.487500	1367676545.2550073	1278158.5481410255
0.493750	1270364300.4483564	1235315.1593889692
0.500000	1178681986.4300313	1243582.6996861647
0.506250	1092204225.994102	1142565.5390786396
0.512500	1011520087.9291999	1001665.1305505311
0.518750	936346296.9664402	1064524.8853660668
0.525000	866570719.98323321	1090541.6530502327
0.531250	802298562.85726523	946950.86906744516
0.537500	743383470.01802289	700980.38002434187
0.543750	688414263.1988132	666114.26299885428
0.550000	637887182.43855357	634129.75285305723
0.556250	591611090.04115665	540485.48783277429
0.562500	549304868.80918837	375299.43187148898
0.568750	510950049.23477364	412666.42431722389
0.575000	476328126.12126172	414427.27834028349
0.581250	444985205.29637635	339785.78245799523
0.587500	416847357.67767239	360921.58223177801
0.593750	391551590.65501124	253378.08302478303
0.600000	368738379.35830605	263349.55559892027
0.606250	348645503.46223176	420732.50460213068
0.612500	330590711.12876236	464554.00431632489
0.618750	314263261.4630748	423909.52232144738
0.625000	299502056.15633124	428506.91245725937
0.631250	286152499.4003948	423013.30697387323
0.637500	273975094.54620135	439842.28646336944
0.643750	262759914.09813255	430355.77592846722
0.650000	252371332.22501269	440549.10207245086
0.656250	242608904.59969798	455197.08369952446
0.662500	233376472.81510472	459133.21576896921
0.668750	224805385.60709199	370905.68271283468
0.675000	217220474.44060278	329527.17852774978
0.681250	209727658.65977913	294953.96868717228
0.687500	202281534.59355098	226649.37180367159
0.693750	194926537.27966622	258375.45449362355
0.700000	187518090.19250709	294489.26655784273
0.706250	180241803.60167307	215607.86355038168
0.712500	173032684.28515798	251025.62135064587
0.718750	165880780.23429126	243207.09351188931
0.725000	158792301.01928037	247170.44255710777
0.731250	151900987.65050948	252336.96059331784
0.737500	145796378.33305866	207096.56167893382
0.743750	139888058.08127341	219168.8294738644
0.750000	134000693.4842045	206359.79422498815
0.756250	128159156.28755362	211920.39939409445
0.762500	122474054.23770833	214396.2785735651
0.768750	116979203.54227158	207112.58795695493
0.775000	111718550.27625895	212914.01527769098
0.781250	106757386.29626112	205204.29246518048
0.787500	102093975.38078427	193989.60023441323
0.793750	97769032.98151733	216458.11044484627
0.800000	93801869.02112335	196139.22495424777
0.806250	90589846.009168521	100796.53632246009
0.812500	87638713.407710791	93173.386618586752
0.818750	84900214.511599511	90550.829625794577
0.825000	82392450.646217853	83959.394334046039
0.831250	80086363.786746413	76871.61677151495
0.837500	78026131.907718197	103143.96052885245
0.843750	76147877.059476092	97303.900317181644
0.850000	74462527.386371806	110206.16263071474
0.856250	72929011.359787583	123034.97849754666
0.862500	71494426.369409442	125905.665669365
0.868750	70230519.008252129	96642.030353424809
0.875000	69334595.995855421	102164.4937475382
0.881250	68424803.865711004	106329.84288588059
0.887500	67487628.39174667	116538.07461574566
0.893750	66504984.351729311	117770.35540140206
0.900000	65469542.363485813	122124.50262855722
0.906250	64369103.162679769	125266.82835478194
0.912500	63193634.572886467	128554.3528213274
0.918750	61939500.052621767	128008.37514552413
0.925000	60591788.856449567	129150.62151204066
0.931250	59151674.182179451	126954.63317652226
0.937500	57872910.633587345	110494.68594504936
0.943750	56567800.211020149	102755.79737214625
0.950000	55123400.034675419	97536.633770188317
0.956250	53567217.170503795	92568.307751946311
0.962500	51921625.191272527	88971.60631525745
0.968750	50215353.327539012	86602.637148477501
0.975000	48474552.997458383	85434.560319006268
0.981250	46721383.674543977	83682.366831248277
0.987500	44990710.592358723	85872.762733668918
0.993750	43292557.54983411	86486.127661000253
1.000000	41653169.343023881	88284.041568662418
1.006250	40274568.912375554	81498.541824861662
1.012500	38926486.628211573	83501.261050646048
1.018750	37629290.049103647	82816.502355150631
1.025000	36406215.635810278	79704.491298254245
1.031250	35297790.053784534	81685.812133439176
1.037500	34300266.425163165	78397.444217249009
1.043750	33433718.400993973	74076.040235199776
1.050000	32702139.005239882	68112.650738951445
1.056250	32113906.353718929	62919.012095405007
1.062500	31657721.546521984	57769.227361303187
1.068750	31357036.529890586	55880.942312036896
1.075000	31249539.093866836	56702.947475746812
1.081250	31240323.374520313	57932.404822001059
1.087500	31324604.971288361	59608.305524122086
1.093750	31493855.423586763	61639.504865989766
1.100000	31738469.581562854	64297.820148713377
1.106250	32042673.036174476	67230.025653812438
1.112500	32391552.024429761	67747.379003129987
1.118750	32760965.864917737	73868.950856921612
1.125000	33134729.294565517	78104.917293183185
1.131250	33486329.656740785	80824.099356288803
1.137500	33896150.309025928	62723.226444013722
1.143750	34330500.630615026	61635.159710315638
1.150000	34706031.515531838	59046.396566291231
1.156250	35015646.526052468	57277.999760802202
1.162500	35250388.87340723	55599.345083596752
1.168750	35399983.498965524	53154.563900070585
1.175000	35459830.060084067	51172.649157477048
1.181250	35423565.976027347	49221.333773370177
1.187500	35286177.311843857	47991.910529893357
1.193750	35044821.994542137	45013.352427355901
1.200000	34699002.877799794	43848.962331547067
1.206250	34451060.162928201	70601.982483945161
1.212500	34069543.162480816	68014.619836556085
1.218750	33581875.12034063	65618.060506160997
1.225000	33000028.268312491	63676.342404387447
1.231250	32337313.781539075	63894.71293130183
1.237500	31610439.378504205	58081.738461978661
1.243750	30827881.505398043	55731.72440262718
1.250000	30004405.312864117	53500.360402280829
1.256250	29149514.081295658	54939.655983289871
1.262500	28282762.309651591	49421.18299895346
1.268750	27435687.200735025	109304.05093696076
1.275000	26661169.976899035	106872.43282091143
1.281250	25874304.785561822	104463.51194870409
1.287500	25090352.478243731	101998.80439823793
1.293750	24322799.103399243	99425.968118949415
1.300000	23583062.395191628	96741.626402313297
1.306250	22880197.264319848	94007.982193742151
1.312500	22220811.038550116	91361.487892248755
1.318750	21608908.140897073	89009.013733044529
1.325000	21045873.58290904	87207.465295746573
1.331250	20530522.042126451	86222.676215052721
1.337500	20093240.318411067	59618.278648091531
1.343750	19721839.588670336	60649.801733720393
1.350000	19389271.029946171	61862.10463708733
1.356250	19095869.215013191	63053.678190742765
1.362500	18837910.73592364	64628.231513166487
1.368750	18613603.420475416	66074.121755821528
1.375000	18417209.002701811	67491.090919279406
1.381250	18242118.360068135	68829.514740983752
1.387500	18080406.623539161	70043.150768872758
1.393750	17924669.713927958	73069.847841942188
1.400000	17759989.729191147	71925.336046989294
1.406250	17674398.950045172	29781.714656615717
1.412500	17565255.700014729	29942.528929249554
1.418750	17439001.864662372	30207.221656750167
1.425000	17292489.127474699	30552.124254316896
1.431250	17122728.067182999	30949.826041828659
1.437500	16926899.92921295	31370.757758212458
1.443750	16702351.649802074	31784.723331989851
1.450000	16446598.974342436	32153.501576464721
1.456250	16157506.72902758	32570.916190168926
1.462500	15832794.208454836	32698.768553620306
1.468750	15499214.647880796	26863.187826808957
1.475000	15180235.463732351	25919.102473459738
1.481250	14819366.827521037	24999.136329628902
1.487500	14421902.768353185	24105.635000928327
1.493750	13992670.548190881	22539.09563155764
1.500000	13539321.227221582	23044.749506220931
1.506250	13066168.710120108	21598.868706651945
1.512500	12578617.827080362	20824.139158114973
1.518750	12082209.792346489	20080.446816559499
1.525000	11581422.57037231	19685.191716297464
1.531250	11081857.587063221	18685.39900055348
1.537500	10619772.707156448	24152.778475417501
1.543750	10169834.319771025	23334.368873237792
1.550000	9718921.6839574184	22593.844810928622
1.556250	9273895.746961195	21944.362586525407
1.562500	8840938.5048275217	21397.244063294103
1.568750	8424929.9250676688	20712.925879929535
1.575000	8031752.9152926458	20639.406413109555
1.581250	7663480.2995944899	20432.182506273191
1.587500	7323081.7363389554	20332.722423867868
1.593750	7012083.316150099	20328.83119772897
1.600000	6731042.4601737317	20402.986670557999
1.606250	6509921.5331093669	16086.031296185571
1.612500	6302842.1119054733	16281.762220298941
1.618750	6119260.7505402137	16454.296339490313
1.625000	5960459.3092798991	16641.101390931442
1.631250	5826281.4276838657	16798.656410081327
1.637500	5716040.9932320472	16914.956210802098
1.643750	5628778.6336188493	16995.534920384402
1.650000	5562567.4930073414	17269.563953799679
1.656250	5515563.3553501181	17288.490100710707
1.662500	5485900.5845899871	17018.389390807894
1.668750	5474037.7313705105	16688.876567928186
1.675000	5491901.8813752513	16648.056375507695
1.681250	5519013.9028908294	16554.948444182624
1.687500	5553941.2396191983	16417.118285714678
1.693750	5595274.9396756273	16243.689213583299
1.700000	5641616.0148129258	16044.805665008045
1.706250	5691567.7302935142	15831.039397984783
1.712500	5743739.450311658	15612.729784187772
1.718750	5796747.3230262902	15399.360586991006
1.725000	5849097.807645184	15380.987082029877
1.731250	5899873.9598857705	15017.600985363018
1.737500	5964127.77909943	19513.972838521724
1.743750	6037073.5110776816	20035.794444855943
1.750000	6106342.6539561842	20509.353017218538
1.756250	6172413.8691947255	20955.075875393388
1.762500	6235452.9010252301	21340.558137045693
1.768750	6296525.0679894993	21687.415564051702
1.775000	6355448.6589361252	21974.277680389598
1.781250	6412699.9831995443	22164.378945535609
1.787500	6468527.1764945965	22382.418841234801
1.793750	6523024.8998035733	22453.539615756894
1.800000	6576161.2174538691	22498.314848035006
1.806250	6652616.9325021422	12674.281477206214
1.812500	6729204.655268861	12263.852301991237
1.818750	6805616.0883466676	11871.395576688208
1.825000	6882777.6926106494	11435.938996725996
1.831250	6960775.0150126368	11149.981093308468
1.837500	7040655.7282073228	10886.861895800617
1.843750	7122157.0220495295	10652.509263138554
1.850000	7205093.4712119251	10490.049689687126
1.856250	7288910.8070214912	10642.389054943629
1.862500	7373212.0969882188	10478.236879992242
1.868750	7458413.0681475122	24386.586145688296
1.875000	7568139.0211509075	25193.577872908241
1.881250	7677857.6122265235	25914.265857411625
1.887500	7788134.7790879784	26896.013257904327
1.893750	7898663.9276597444	28031.905456114586
1.900000	8009234.5326336352	29326.035903537271
1.906250	8119260.481885368	30698.724525218637
1.912500	8227917.8642670307	32209.271222596708
1.918750	8334271.6090273662	33807.507277555371
1.925000	8437356.4332207348	35329.02433420853
1.931250	8535285.0161155183	37164.775206295912
1.937500	8650034.2162592057	20794.374439092688
1.943750	8768974.091333583	21145.27566329878
1.950000	8883878.6451184619	21590.331382836466
1.956250	8994845.4288707022	22165.026433773965
1.962500	9101916.5435519107	22806.703864463685
1.968750	9204868.4993069824	23586.734737952032
1.975000	9303389.5240659155	24477.242401538144
1.981250	9396963.2803779449	25430.827384590866
1.987500	9484983.116157636	26543.687258108443
1.993750	9566518.1170807146	27669.329522767643
2.000000	9640777.7421423923	28870.935892026257
2.006250	9733014.9071228951	17451.047616997526
2.012500	9828158.7998759244	16795.142345528424
2.018750	9917722.1410157643	16231.355052243674
2.025000	10002169.801539805	15787.574035988813
2.031250	10081739.38758665	15481.987378705002
2.037500	10156398.004986485	15420.678853488764
2.043750	10226044.942556715	15305.427877407492
2.050000	10290010.408870434	15394.06675959094
2.056250	10347563.086577062	15721.597506935455
2.062500	10398051.338167544	15992.089215070911
2.068750	10452370.732472247	23202.163132902282
2.075000	10523207.509350516	23021.889321011739
2.081250	10586624.248884019	22959.429543050999
2.087500	10642993.625964211	23039.294800204199
2.093750	10692407.447528232	23222.265538243209
2.100000	10734915.04457365	23697.772633353921
2.106250	10770056.746004414	24275.055516563789
2.112500	10797148.905319335	25069.011771129863
2.118750	10815729.639298836	25986.976307858025
2.125000	10824444.328473022	27085.1725303604
2.131250	10822227.139772303	28221.369337023421
2.137500	10855732.270562822	21613.207388808092
2.143750	10870292.738017635	20955.084239836302
2.150000	10873430.685635062	20305.17363556684
2.156250	10865475.341098754	19684.969347620459
2.162500	10846651.666911911	19128.943142104923
2.168750	10817331.538546238	18601.437085118312
2.175000	10777196.847923821	18173.787999049066
2.181250	10726153.295324747	17841.148740660643
2.187500	10663878.295699697	17612.544441297174
2.193750	10589787.491321269	17657.891639986086
2.200000	10503690.881734209	17474.373479830996
2.206250	10437163.914003609	29069.427301507265
2.212500	10363603.408913363	28067.534507724889
2.218750	10278100.912898548	27089.092495098743
2.225000	10181350.733481236	26669.003047280268
2.231250	10075568.681217182	25311.117926655177
2.237500	9960360.3598849475	24558.976354686882
2.243750	9836803.9676316865	23921.355919405956
2.250000	9705297.2008032408	23279.514289740218
2.256250	9566502.6403839085	23011.32703871631
2.262500	9420263.0159088988	22749.306483108667
2.268750	9280345.6727909837	18422.136964256006
2.275000	9152530.4290455133	18428.702320045555
2.281250	9016411.8812299799	18425.52678512159
2.287500	8873356.7264800593	18435.144719210111
2.293750	8724793.3931556903	18411.505659352992
2.300000	8571544.3916819207	18424.595110801689
2.306250	8414563.0095133521	18449.907851098687
2.312500	8254445.5507483603	18495.468205776364
2.318750	8091557.2420751229	18580.810903280941
2.325000	7926074.625895354	18569.891802278664
2.331250	7757964.4998312462	18728.05222095608
2.337500	7613688.4129428398	19433.014833520214
2.343750	7465316.6360569764	18423.030629998211
2.350000	7312932.2769202013	17365.064038146491
2.356250	7157486.1040999396	16281.157665665283
2.362500	6999781.5435613897	15196.440567066449
2.368750	6840423.3793860199	14138.399984510339
2.375000	6679897.0294783544	13207.934857733891
2.381250	6518349.7436019685	12219.6520107179
2.387500	6355969.5336354356	11415.351598834197
2.393750	6192308.548873744	10865.737195703941
2.400000	6028199.3732155301	10219.979566336955
2.406250	5880168.6229295563	20021.619452783933
2.412500	5732530.8801524043	19989.517879357514
2.418750	5582560.5202438189	19993.388443826323
2.425000	5430989.7925295057	20182.928607928279
