#List of files for average calculation
#C:\D+_tests\Symmetry\GPU\WH\Space_Filling_Symmetry_Implicit_No_Charges_With_Hydration_Hybrid_MC\Space_Filling_Symmetry_Implicit_No_Charges_With_Hydration_Hybrid_MC_1
#C:\D+_tests\Symmetry\GPU\WH\Space_Filling_Symmetry_Implicit_No_Charges_With_Hydration_Hybrid_MC\Space_Filling_Symmetry_Implicit_No_Charges_With_Hydration_Hybrid_MC_2
#C:\D+_tests\Symmetry\GPU\WH\Space_Filling_Symmetry_Implicit_No_Charges_With_Hydration_Hybrid_MC\Space_Filling_Symmetry_Implicit_No_Charges_With_Hydration_Hybrid_MC_3
#C:\D+_tests\Symmetry\GPU\WH\Space_Filling_Symmetry_Implicit_No_Charges_With_Hydration_Hybrid_MC\Space_Filling_Symmetry_Implicit_No_Charges_With_Hydration_Hybrid_MC_4
#C:\D+_tests\Symmetry\GPU\WH\Space_Filling_Symmetry_Implicit_No_Charges_With_Hydration_Hybrid_MC\Space_Filling_Symmetry_Implicit_No_Charges_With_Hydration_Hybrid_MC_5
#C:\D+_tests\Symmetry\GPU\WH\Space_Filling_Symmetry_Implicit_No_Charges_With_Hydration_Hybrid_MC\Space_Filling_Symmetry_Implicit_No_Charges_With_Hydration_Hybrid_MC_6
#C:\D+_tests\Symmetry\GPU\WH\Space_Filling_Symmetry_Implicit_No_Charges_With_Hydration_Hybrid_MC\Space_Filling_Symmetry_Implicit_No_Charges_With_Hydration_Hybrid_MC_7
#C:\D+_tests\Symmetry\GPU\WH\Space_Filling_Symmetry_Implicit_No_Charges_With_Hydration_Hybrid_MC\Space_Filling_Symmetry_Implicit_No_Charges_With_Hydration_Hybrid_MC_8
#C:\D+_tests\Symmetry\GPU\WH\Space_Filling_Symmetry_Implicit_No_Charges_With_Hydration_Hybrid_MC\Space_Filling_Symmetry_Implicit_No_Charges_With_Hydration_Hybrid_MC_9
#C:\D+_tests\Symmetry\GPU\WH\Space_Filling_Symmetry_Implicit_No_Charges_With_Hydration_Hybrid_MC\Space_Filling_Symmetry_Implicit_No_Charges_With_Hydration_Hybrid_MC_10
#Average Chi square (Sigma units): 1.3651792576011
#Sigma Chi square: 0.23828260978928
#Calculation was done on GPU
q [nm^-1]	Intensity [A.U]	Sigma [A.U]
0.000000	62833252731.897873	0
0.006250	62894522777.574417	1152469.1201745963
0.012500	62829423979.073524	2270059.9555657352
0.018750	62643787130.387512	3362791.7111427612
0.025000	62341591737.372543	4433745.6117140744
0.031250	61925038479.669228	5492112.6069000345
0.037500	61394756498.151367	6570291.2873797622
0.043750	60750133085.001297	7742343.2987007489
0.050000	59989743482.810043	9136404.6470939368
0.056250	59111865904.739708	10929115.253231341
0.062500	58115043120.016556	13316042.634324867
0.068750	57080526513.247047	7172168.5312843518
0.075000	56080534245.047424	9307416.0793716274
0.081250	54967389896.376205	12266667.97809007
0.087500	53754337775.916908	15916062.426624842
0.093750	52454031829.245651	20084928.992667329
0.100000	51078252045.110695	24618202.958231091
0.106250	49637739756.786278	29384924.759531766
0.112500	48142133124.768661	34275954.42431923
0.118750	46599981031.562363	39200351.845342442
0.125000	45018842047.754723	44082019.118420906
0.131250	43405419323.565819	48856842.065968484
0.137500	41867460170.390045	34763169.094909012
0.143750	40347039524.052734	37291600.325330898
0.150000	38805419721.796127	39730915.81770651
0.156250	37254933729.089355	42042263.294558555
0.162500	35706208324.419937	44194654.477345049
0.168750	34168238925.604839	46165209.603311695
0.175000	32648518916.824463	47939033.809839934
0.181250	31153170700.077118	49508714.212341733
0.187500	29687154090.378742	50873358.983076319
0.193750	28254430632.117737	52037468.778533548
0.200000	26858157717.73848	53009623.642186344
0.206250	25591983820.711143	85406664.359204963
0.212500	24344962831.440163	86610578.998210847
0.218750	23133344244.741001	87551981.905882612
0.225000	21960943563.430779	88227481.810801923
0.231250	20830477892.951305	88639073.127595648
0.237500	19743731235.008717	88792885.051941216
0.243750	18701688649.56126	88698065.89617388
0.250000	17704698986.056961	88365818.266361848
0.256250	16752582471.160389	87808615.539811224
0.262500	15844745920.380596	87039628.893125802
0.268750	14983827081.126791	38713101.350644261
0.275000	14195960885.24291	38096357.806151018
0.281250	13444497345.566036	37410297.432483666
0.287500	12729336041.135767	36665011.497375436
0.293750	12049900397.802877	35869769.998952948
0.300000	11405236829.655914	35032998.066108599
0.306250	10794116009.99976	34162318.2981916
0.312500	10215089041.888502	33264573.569766782
0.318750	9666561082.0768795	32345908.677786998
0.325000	9146835484.8343296	31411816.631111834
0.331250	8654148841.9996758	30467191.944402654
0.337500	8188968375.0191908	33861295.483164109
0.343750	7762277365.2497463	32214255.626951136
0.350000	7355672681.999197	30608977.382057339
0.356250	6968107493.8977308	29052393.670004997
0.362500	6598520558.7345772	27549990.09683647
0.368750	6245868762.8116302	26105909.782903858
0.375000	5909133147.2253857	24723001.765691418
0.381250	5587336229.1086235	23402975.997887466
0.387500	5279546230.0869827	22146511.042275399
0.393750	4984879339.204999	20953370.547566928
0.400000	4702507949.0878696	19822542.508785419
0.406250	4446754365.3823175	25363531.40721206
0.412500	4195346583.1391959	24149250.046288256
0.418750	3953161237.5472193	22991436.302818686
0.425000	3720070383.4153152	21888735.40465495
0.431250	3495982244.5525579	20839154.031223603
0.437500	3280821800.3667006	19840174.241845027
0.443750	3074523649.5307417	18888929.823019743
0.450000	2877021302.2775311	17982327.107643947
0.456250	2688239795.7898021	17117156.395360831
0.462500	2508095525.8391461	16290210.992930915
0.468750	2336385831.9432731	14358800.633606184
0.475000	2178013634.3353186	13805916.307002002
0.481250	2027007904.4305224	13249081.575132441
0.487500	1883542849.6866925	12688744.788578058
0.493750	1747741152.3999779	12125701.921739828
0.500000	1619663354.8494341	11561045.220836194
0.506250	1499307588.0514212	10996131.400838697
0.512500	1386612716.2709603	10432538.729381857
0.518750	1281456261.8583233	9871988.973772889
0.525000	1183668188.1835546	9316339.1481640358
0.531250	1093029649.8288944	8767494.1885392573
0.537500	1009833905.8292997	7663306.586180456
0.543750	934405743.38196242	7132967.572707992
0.550000	864928343.22277606	6633187.1119085485
0.556250	801185882.19530225	6162641.6454840926
0.562500	742915198.69189072	5719908.1326763332
0.568750	689819906.77479625	5303567.7172780083
0.575000	641578368.33372164	4912249.8581108218
0.581250	597851923.49734521	4544672.2257989161
0.587500	558296192.42342305	4199700.4005089412
0.593750	522563992.96524	3876345.1239508181
0.600000	490312339.84298438	3573796.1078717806
0.606250	461754120.87446976	2426941.7301194891
0.612500	436303058.36257428	2280722.248780265
0.618750	413147043.55505472	2143446.026631657
0.625000	392003328.77506411	2015344.6268063006
0.631250	372614150.01599741	1896753.8677565621
0.637500	354749733.15670466	1788068.2891908165
0.643750	338209209.20349038	1689683.3157405707
0.650000	322820796.28133821	1601939.7894439225
0.656250	308437721.31943142	1525048.9546667165
0.662500	294934977.87281066	1459034.0068776126
0.668750	282798647.91342717	1089321.4538255979
0.675000	271480394.37303931	1081979.4604830032
0.681250	260418050.4345811	1076620.8274663298
0.687500	249558870.61427736	1072152.320839362
0.693750	238883983.50330311	1067764.8297890187
0.700000	228402664.30757469	1062880.7550359692
0.706250	218145204.97899622	1057099.1414284282
0.712500	208155948.22809026	1050146.344448281
0.718750	198484742.63936609	1041834.4591701335
0.725000	189180390.62790269	1032033.2723709182
0.731250	180284407.19596118	1020652.3099812738
0.737500	171281875.67451161	1330049.6690533787
0.743750	163606418.51293898	1336819.9634533527
0.750000	156145071.77493435	1339479.4388790219
0.756250	148963209.09408945	1338365.6280182549
0.762500	142128322.34026992	1333862.375748598
0.768750	135702465.79247084	1326354.8771432696
0.775000	129736249.34044585	1316194.3886962733
0.781250	124263255.29206994	1303669.0245346036
0.787500	119297181.41862741	1288984.2741709396
0.793750	114830355.69981213	1272250.7253314496
0.800000	110834508.40996274	1253481.6425397496
0.806250	108758841.00021803	598019.58573196875
0.812500	105831644.35708836	591836.46511371795
0.818750	103243517.40042605	587096.21234646009
0.825000	100988058.55784106	583722.25720964512
0.831250	99047430.191949412	581521.13271708903
0.837500	97390391.929316685	580180.11800667469
0.843750	95971698.091903642	579279.25616282097
0.850000	94733373.533795565	578314.89998217439
0.856250	93607293.690570489	576734.96172620577
0.862500	92519004.572442964	573980.02834683552
0.868750	90956467.219185188	583075.11182637769
0.875000	90129871.195896894	564146.87580417446
0.881250	89259751.113109499	545374.75039150135
0.887500	88325421.341642708	526865.32723404909
0.893750	87303341.521031484	508697.01198120246
0.900000	86167227.973388925	490923.34488300013
0.906250	84889062.916380644	473578.33366841637
0.912500	83441031.726622313	456688.7401067171
0.918750	81797858.332730785	440289.96067002317
0.925000	79939302.629746079	424442.24078269821
0.931250	77852734.844887018	409249.88987517997
0.937500	75873468.348090947	375382.03899825469
0.943750	73687521.98136434	363177.9375462915
0.950000	71358296.253274873	352171.80454829399
0.956250	68914874.97706157	342700.93972755421
0.962500	66383903.05729197	334997.93488736905
0.968750	63790152.473050751	329183.0786511504
0.975000	61157638.262352265	325265.61044281203
0.981250	58510464.978023246	323153.21821827238
0.987500	55873460.936336711	322668.57674467878
0.993750	53272735.189374223	323572.02476958296
1.000000	50735448.520228766	325586.52289925446
1.006250	48411447.148080431	350285.97169426898
1.012500	46231106.652603745	352355.4240370568
1.018750	44188084.594098143	355260.76155199209
1.025000	42304385.454386607	358868.41063094873
1.031250	40596165.180708274	363036.80085396772
1.037500	39074405.975690559	367624.22230085667
1.043750	37745589.648915805	372493.39856673311
1.050000	36612111.263145491	377514.22688674863
1.056250	35672368.6908115	382565.5132372505
1.062500	34920871.255948998	387534.13509306894
1.068750	34160025.694481343	437143.61457146978
1.075000	33792434.202322781	436034.90357682889
1.081250	33575383.524186157	434727.96695417882
1.087500	33494278.099697035	433267.46111466346
1.093750	33531871.736537617	431686.041092047
1.100000	33668918.753264293	430002.97074466717
1.106250	33884641.719911426	428222.86902888044
1.112500	34157036.241330191	426335.50860974303
1.118750	34463117.341555871	424315.83282029099
1.125000	34779096.501461722	422125.11583787226
1.131250	35080665.447997838	419712.80520877091
1.137500	35558997.487435505	348489.54953410674
1.143750	35839493.827062309	346421.60207898502
1.150000	36050768.603479855	343947.29627757898
1.156250	36180168.816706434	341007.65977641608
1.162500	36217311.270598561	337558.0061742384
1.168750	36153888.538162529	333568.25521406508
1.175000	35983491.098347649	329022.40115773433
1.181250	35701457.655334793	323917.27116721595
1.187500	35304859.533518806	318262.35748349677
1.193750	34792547.949011162	312079.36035730888
1.200000	34165317.221984401	305401.97604429448
1.206250	33520705.527171932	306087.30419581872
1.212500	32750604.446904968	295113.28913181886
1.218750	31879758.813351113	283835.05191530462
1.225000	30922622.023200177	272402.45758078957
1.231250	29894172.029910147	260954.55124557141
1.237500	28809542.555388331	249615.45369988141
1.243750	27683678.220665522	238490.87974350224
1.250000	26531301.609483015	227668.01351343709
1.256250	25366761.87538996	217214.43331010808
1.262500	24204011.196563326	207178.90379780883
1.268750	22961553.866313823	169511.3758462203
1.275000	21867729.746675126	164052.17455449057
1.281250	20801099.724830914	158738.58380910521
1.287500	19775363.424785074	153560.24675628761
1.293750	18801917.867837153	148508.76232399693
1.300000	17889931.197207414	143581.77688996031
1.306250	17046403.055109687	138785.1805196708
1.312500	16276424.162735561	134135.13666243746
1.318750	15583244.830330271	129657.85759915363
1.325000	14968376.134155806	125388.48507234571
1.331250	14431604.58965368	121368.42266469619
1.337500	13962846.931225549	78258.44255951076
1.343750	13580868.03111651	75983.838341717274
1.350000	13264643.180274781	74193.670636325158
1.356250	13009081.915220561	72888.14263145595
1.362500	12808348.953066338	72047.362846800999
1.368750	12656164.49517571	71632.486204687521
1.375000	12546031.42416125	71588.83188742405
1.381250	12471293.090372805	71850.011466540396
1.387500	12425095.116916362	72342.124422863679
1.393750	12400229.041518522	72986.746106724779
1.400000	12388900.900372894	73702.554011367116
1.406250	12455599.302029626	95047.279754611678
1.412500	12478595.325294685	96345.394003230438
1.418750	12489066.352871671	97574.539443543472
1.425000	12482821.025037901	98629.614459090808
1.431250	12457286.660200106	99430.219257235964
1.437500	12411262.296776816	99918.583040886835
1.443750	12344553.453674262	100055.36486405379
1.450000	12257525.777492141	99814.080670408657
1.456250	12150636.502092157	99174.904645670758
1.462500	12023970.158397762	98118.990970415631
1.468750	11936157.010676073	125135.1426023664
1.475000	11825637.342414582	126233.46418168781
1.481250	11680784.3486409	126246.69252342718
1.487500	11506796.344157811	125232.4086093424
1.493750	11310072.360840188	123271.50178879096
1.500000	11097627.760304822	120461.01736575273
1.506250	10876469.719903372	116907.0447304878
1.512500	10653026.744751848	112717.78969337179
1.518750	10432661.343512183	107997.48949903258
1.525000	10219278.105188001	102841.36207642154
1.531250	10015122.572804483	97332.834152034731
1.537500	9794962.4408208616	81053.394021262211
1.543750	9664503.0518302433	78183.118880275739
1.550000	9535363.0794642344	75234.074568943644
1.556250	9413937.3335949313	72331.761857703299
1.562500	9306028.6166783813	69596.644128730419
1.568750	9216387.1876217667	67135.166581263416
1.575000	9148372.9158828016	65031.902178340337
1.581250	9103742.0749405585	63343.00132935572
1.587500	9082567.5219842903	62092.28754273559
1.593750	9083302.1521650553	61271.189054854629
1.600000	9102962.5459552072	60842.399354033747
1.606250	9201210.1085810754	51314.82873830176
1.612500	9296130.5737297069	53765.896328958865
1.618750	9400858.9909385517	56558.235492487918
1.625000	9516138.2311285138	59563.359092260238
1.631250	9641800.4752156939	62668.320924079482
1.637500	9776678.0945866965	65780.716849420074
1.643750	9918618.4794437699	68829.478882065479
1.650000	10064606.119942833	71763.132709953701
1.656250	10210930.997760992	74546.12247879013
1.662500	10353441.545659127	77155.130593141104
1.668750	10516015.505049746	70426.237919730382
1.675000	10685728.194641581	72930.976523833437
1.681250	10844777.301322035	75383.818813317717
1.687500	10993211.833494326	77764.597119956437
1.693750	11130769.992645148	80055.87129562044
1.700000	11256883.045661209	82243.039949588652
1.706250	11370733.659627292	84314.217316654365
1.712500	11471360.026402213	86259.876438886524
1.718750	11557756.828014197	88071.914631514883
1.725000	11629001.071389619	89743.156015527231
1.731250	11684355.45100143	91266.666842871709
1.737500	11681319.596928051	131037.59959096432
1.743750	11746252.233513823	133865.5568677749
1.750000	11798747.480379511	136556.6196670341
1.756250	11840348.543720711	139096.67404296465
1.762500	11872344.648505952	141471.0482495605
1.768750	11895796.016539555	143664.3622066656
1.775000	11911565.744620673	145660.61492742281
1.781250	11920344.465111407	147442.89318434743
1.787500	11922667.625281749	148993.52925741891
1.793750	11918918.494338412	150294.20156921257
1.800000	11909317.506058346	151326.23273287463
1.806250	11945129.532166202	55567.227152484556
1.812500	11966183.26294074	55965.631187810475
1.818750	11985534.933201721	56415.172802137218
1.825000	12004248.036255589	56932.160010872627
1.831250	12023094.041582799	57532.593621677537
1.837500	12042561.145221677	58231.166090759747
1.843750	12062851.325955939	59040.21050071119
1.850000	12083874.123734185	59968.89267168189
1.856250	12105233.607550034	61022.276623101694
1.862500	12126216.189295612	62200.708617544289
1.868750	12189804.580739979	98599.477498374399
1.875000	12247517.088982105	98425.010314258398
1.881250	12304838.449924286	98379.584896664164
1.887500	12361976.40079787	98484.115587777123
1.893750	12418968.309822777	98757.25495041543
1.900000	12475661.679667089	99214.887571804997
1.906250	12531680.045049239	99869.459617219356
1.912500	12586400.885675421	100729.31765012044
1.918750	12638933.031073688	101797.90818774117
1.925000	12688104.420698334	103072.64213852893
1.931250	12732468.192963554	104544.23191537702
1.937500	12822581.560147081	125473.99243373322
1.943750	12900942.589378305	126334.21268305712
1.950000	12974723.689570382	127130.1369986741
1.956250	13044563.173872083	127867.35145961112
1.962500	13110937.564771941	128550.41548329037
1.968750	13174093.321573172	129182.38695953423
1.975000	13234002.004778393	129764.58171373968
1.981250	13290322.237525014	130296.27098704956
1.987500	13342377.633916218	130774.52437996767
1.993750	13389156.966270376	131194.03468356639
2.000000	13429322.211391766	131547.17676154021
2.006250	13420680.240448546	110204.49005304232
2.012500	13499482.709849115	108856.85517400983
2.018750	13573227.755981287	107453.4719459934
2.025000	13642547.852692366	106001.32646469792
2.031250	13707714.456527811	104506.23414851408
2.037500	13768615.092514295	102971.79232855511
2.043750	13824719.966309756	101399.50948978716
2.050000	13875069.094175745	99788.738663259472
2.056250	13918296.485821446	98136.544893342289
2.062500	13952641.30556922	96438.475190843092
2.068750	14016698.215005975	115850.62898845595
2.075000	14082703.454034034	116226.74795945766
2.081250	14138502.764007885	116636.05100354535
2.087500	14184605.734806392	117060.82170086181
2.093750	14221195.829368079	117484.82488771591
2.100000	14248116.219566792	117893.36312267926
2.106250	14264850.316174796	118272.56225280631
2.112500	14270522.928182501	118609.30769395077
2.118750	14263918.869076705	118890.91280908934
2.125000	14243509.714113593	119104.75771184108
2.131250	14207494.559070695	119238.26207230639
2.137500	14237241.452580741	142785.47830582332
2.143750	14228368.280537155	143417.66549768046
2.150000	14203500.547204033	143877.89191553928
2.156250	14163409.802647453	144166.94078882178
2.162500	14108629.815674881	144279.25384273147
2.168750	14039433.611150961	144203.00578933291
2.175000	13955831.952940494	143920.69916265819
2.181250	13857552.977599746	143409.95053666164
2.187500	13744079.690937057	142644.88854227986
2.193750	13614649.885074418	141597.41883924036
2.200000	13468303.261957701	140238.81636378914
2.206250	13378716.428507086	81474.326677084915
2.212500	13257431.599500716	80491.946926234101
2.218750	13121007.540469037	79463.148801093033
2.225000	12971139.448849725	78403.769459054645
2.231250	12809225.252913391	77327.535107622214
2.237500	12636355.506120423	76245.986585074803
2.243750	12453252.819081057	75168.296205063147
2.250000	12260323.963625273	74101.632569281559
2.256250	12057628.638112716	73050.89887529581
2.262500	11844932.350515965	72018.976781208796
2.268750	11599011.348083608	93508.451222278978
2.275000	11421112.576387446	92020.129211226391
2.281250	11233279.326731302	90459.335583423774
2.287500	11037406.739554802	88842.329945186764
2.293750	10835024.109927079	87182.690437182871
2.300000	10627295.031286856	85491.558568271794
2.306250	10414956.275845846	83777.090269183653
2.312500	10198392.898268761	82045.353217444164
2.318750	9977611.403003931	80299.868660497596
2.325000	9752309.7332831696	78542.266100449808
2.331250	9521965.7500276715	76772.695808868244
2.337500	9404602.7591727264	110000.62865072352
2.343750	9200701.3601883706	106871.81514347676
2.350000	8992062.5376795828	103632.23599331493
2.356250	8779989.1857280098	100309.84881625198
2.362500	8565455.0492186043	96929.514870753526
2.368750	8349057.403957054	93512.268362129922
2.375000	8131108.8168716105	90076.376992925711
2.381250	7911620.3203221234	86636.884050037392
2.387500	7690379.3619315028	83206.226153572148
2.393750	7467037.9715984538	79794.962012435251
2.400000	7241122.2705294639	76411.187852974996
2.406250	6993255.4802445294	76971.374872780681
2.412500	6795412.8295708671	74996.597010602592
