#List of files for average calculation
#C:\D+_tests\D+_Phase_1\GPU\No_Charges\V_54\Explicit_Ring_DOL_Solution_without_Solvation\Explicit_Ring_DOL_Solution_without_Solvation_1
#C:\D+_tests\D+_Phase_1\GPU\No_Charges\V_54\Explicit_Ring_DOL_Solution_without_Solvation\Explicit_Ring_DOL_Solution_without_Solvation_2
#C:\D+_tests\D+_Phase_1\GPU\No_Charges\V_54\Explicit_Ring_DOL_Solution_without_Solvation\Explicit_Ring_DOL_Solution_without_Solvation_3
#C:\D+_tests\D+_Phase_1\GPU\No_Charges\V_54\Explicit_Ring_DOL_Solution_without_Solvation\Explicit_Ring_DOL_Solution_without_Solvation_4
#C:\D+_tests\D+_Phase_1\GPU\No_Charges\V_54\Explicit_Ring_DOL_Solution_without_Solvation\Explicit_Ring_DOL_Solution_without_Solvation_5
#C:\D+_tests\D+_Phase_1\GPU\No_Charges\V_54\Explicit_Ring_DOL_Solution_without_Solvation\Explicit_Ring_DOL_Solution_without_Solvation_6
#C:\D+_tests\D+_Phase_1\GPU\No_Charges\V_54\Explicit_Ring_DOL_Solution_without_Solvation\Explicit_Ring_DOL_Solution_without_Solvation_7
#C:\D+_tests\D+_Phase_1\GPU\No_Charges\V_54\Explicit_Ring_DOL_Solution_without_Solvation\Explicit_Ring_DOL_Solution_without_Solvation_8
#C:\D+_tests\D+_Phase_1\GPU\No_Charges\V_54\Explicit_Ring_DOL_Solution_without_Solvation\Explicit_Ring_DOL_Solution_without_Solvation_9
#C:\D+_tests\D+_Phase_1\GPU\No_Charges\V_54\Explicit_Ring_DOL_Solution_without_Solvation\Explicit_Ring_DOL_Solution_without_Solvation_10
#Average Chi square (Sigma units): 1.2971009781672
#Sigma Chi square: 0.19513208037017
#Calculation was done on GPU
q [nm^-1]	Intensity [A.U]	Sigma [A.U]
0.000000	22747798583.392128	4.0210439811304468e-006
0.006250	22732885887.027687	93157.974263986427
0.012500	22486739142.435909	213995.11593701495
0.018750	22023874125.631493	768041.73901561333
0.025000	21362065682.226604	1642854.7156585047
0.031250	20521899327.565495	2813734.8517517005
0.037500	19526355191.382118	4258233.9023533165
0.043750	18400424306.98074	5949775.5400121054
0.050000	17170757244.939478	7857434.7280889349
0.056250	15975215472.812473	5625728.2617758866
0.062500	14687992538.120914	7005388.8890942857
0.068750	13354254110.524445	8402494.488191843
0.075000	12015140380.634418	9736805.057244597
0.081250	10706878339.713709	10940572.134304831
0.087500	9459817250.0231571	11960847.745010281
0.093750	8297772564.6153507	12760848.225542281
0.100000	7237678296.5758228	13320461.251650449
0.106250	6297577779.201086	6001830.0140728494
0.112500	5448592173.2869129	6077597.3935035905
0.118750	4706517623.7966213	6065596.7845478496
0.125000	4080498896.167623	5969846.147623281
0.131250	3573399196.5608835	5798668.4490119545
0.137500	3182007921.616622	5564351.0124796098
0.143750	2897459095.5118351	5282563.4594238
0.150000	2705860494.3196702	4971451.3971081767
0.156250	2603309900.470767	3262015.1110753096
0.162500	2571791719.9422922	3015216.6779695889
0.168750	2596416735.18432	2820394.3895204379
0.175000	2663072719.4677854	2682734.3080957029
0.181250	2756771815.4942312	2596309.0151458858
0.187500	2862083060.6230087	2545528.5097580533
0.193750	2963615097.5241904	2509675.0577597856
0.200000	3046549070.257247	2468146.733547003
0.206250	3145706811.162559	2808733.3791599912
0.212500	3211451825.0406737	2687168.459663128
0.218750	3241301758.8002243	2566649.7008604775
0.225000	3233951071.7949481	2449968.6283572232
0.231250	3189826652.6623282	2341626.0861185133
0.237500	3110756431.516263	2247245.3211126975
0.243750	2999672563.5819182	2172636.1758776032
0.250000	2860349184.2727647	2122594.4063387886
0.256250	2732360308.3436441	2645408.0717802732
0.262500	2576450636.3162432	2623239.1025061561
0.268750	2402714603.4541869	2613200.9765876057
0.275000	2221387318.6291356	2612791.9629942621
0.281250	2041618492.5996151	2619701.4786714008
0.287500	1871005907.6435246	2631718.2442516778
0.293750	1715262056.6755633	2646687.7253995966
0.300000	1578013951.849581	2662480.5110352179
0.306250	1474904832.3666561	3244502.5359382536
0.312500	1386995762.0390699	3295284.4388896031
0.318750	1318757564.7620442	3317557.2415187024
0.325000	1271992316.8189473	3311692.7051987494
0.331250	1246461709.907624	3279446.4533127765
0.337500	1239932225.5627079	3223711.0925675863
0.343750	1248330219.0186048	3148246.000095427
0.350000	1266006912.5131414	3057422.032641849
0.356250	1302634882.6577563	1812572.6717126996
0.362500	1341437814.8056145	1734178.1330469891
0.368750	1379955018.5139904	1664025.1569583409
0.375000	1415208701.7015111	1599381.2006874725
0.381250	1444125218.4490752	1536784.7830168807
0.387500	1463619543.1306322	1472907.3532252307
0.393750	1470706920.055135	1405330.6617813965
0.400000	1462641688.619683	1333156.1881019496
0.406250	1456742681.3512158	1187547.6511887137
0.412500	1433440126.4045303	1261714.1860450595
0.418750	1394977262.2159832	1341728.7552287355
0.425000	1344085195.8054605	1423695.9405711712
0.431250	1283617489.8705204	1503631.8399787485
0.437500	1216359167.5946257	1577479.5341071885
0.443750	1144873962.149466	1641353.4123975965
0.450000	1071389810.891407	1691865.5370241646
0.456250	1009470856.9916794	992541.64650986914
0.462500	945025473.73933923	972854.57270634477
0.468750	882817401.53529263	957130.49418215442
0.475000	826166600.13865209	946198.79162111145
0.481250	777435957.79191506	940494.81676486111
0.487500	737924184.41925633	939849.68532068562
0.493750	707826938.82675529	943374.00059781293
0.500000	686266189.90457606	949488.30429526232
0.506250	678446314.23445594	646366.54201753531
0.512500	676871907.59519029	606963.73974325741
0.518750	681165341.68588758	572033.57004959625
0.525000	690493704.21706581	543058.31074361282
0.531250	703438229.50809968	520204.66108821548
0.537500	718054292.65304661	502062.38111455401
0.543750	731967562.18921971	485848.86108557112
0.550000	742506311.26850319	468021.32935579814
0.556250	756978930.86966586	674759.83151571581
0.562500	765694105.94121623	660007.81309155724
0.568750	768335332.90100074	651533.24880210729
0.575000	764829992.81650758	644676.02829789708
0.581250	755212183.78834891	636318.08430845698
0.587500	739588497.8694241	624973.55843213887
0.593750	718118043.11304879	610544.67841370043
0.600000	691006710.75005221	593942.85506717837
0.606250	666555811.21075118	823197.92144729628
0.612500	636404909.96380019	832742.03528608393
0.618750	602571247.37204361	844878.91888046614
0.625000	567117412.07240069	857758.67184968153
0.631250	531838354.15932673	869635.26255175401
0.637500	498165231.12551355	879056.03662540682
0.643750	467100808.40866297	884997.20099368214
0.650000	439186414.544339	886925.73343545734
0.656250	418931899.67866433	733857.91666217812
0.662500	401060993.60859299	721375.19082470774
0.668750	386736843.30452478	703198.0844532178
0.675000	376511596.73138154	680844.6272158334
0.681250	370451673.98064995	656387.79553021735
0.687500	368136359.13947237	632130.82422540605
0.693750	368686453.91936624	610207.57543752156
0.700000	370822993.04456997	592158.64870596398
0.706250	377586676.18071425	575033.97391872061
0.712500	384490153.04644448	573661.05550671427
0.718750	390986948.96586663	571445.4340190189
0.725000	396584095.47102559	567927.7653812404
0.731250	400712064.30282021	562871.33977860771
0.737500	402738365.65592682	556304.38597188937
0.743750	401992160.86101955	548516.38151910342
0.750000	397799889.50428617	540006.52614826034
0.756250	394943310.94936436	406420.66630889324
0.762500	387726167.16903639	382983.1342178983
0.768750	377038470.92724061	360445.48788221186
0.775000	363590615.9754625	339598.16117826151
0.781250	348080383.70619881	321211.78709600866
0.787500	331146702.37043369	305918.27228228131
0.793750	313335417.37449384	294111.74353154225
0.800000	295077072.65628707	285899.18812844116
0.806250	279931938.5263477	512643.55982632004
0.812500	264069715.058649	512773.18533613143
0.818750	248619182.60808474	509298.04374940868
0.825000	234384423.04899877	502366.17820682621
0.831250	221928805.87122852	492382.98979232786
0.837500	211547790.83355498	479973.14789325179
0.843750	203259745.02365822	465914.33307765151
0.850000	196814774.32458094	451044.53200336004
0.856250	193751731.20555359	456222.92034092592
0.862500	191971010.44758192	444050.89974462695
0.868750	191347676.40940338	429349.26029164734
0.875000	191751899.82885423	412283.89103998645
0.881250	192908283.20123965	393179.7406045862
0.887500	194405958.31177324	372495.67463010241
0.893750	195718668.07552755	350786.95302483928
0.900000	196234832.684892	328660.04561150353
0.906250	197970689.54546601	223697.60231729623
0.912500	198192228.58844733	218696.50734239837
0.918750	196966498.43006223	214249.42472867772
0.925000	194343271.91438806	209901.26069590854
0.931250	190382862.12055856	205321.3314798513
0.937500	185144955.79163957	200331.91883784847
0.943750	178682200.48251697	194898.12972359787
0.950000	171038545.42679772	189089.69694856901
0.956250	164256607.12928662	137723.54761843116
0.962500	156177924.92123997	126711.39447224585
0.968750	147283413.28659019	117827.7997490445
0.975000	138064738.24156171	111420.27572719923
0.981250	128943352.99399769	107412.48864811
0.987500	120247573.44413114	105326.08909650662
0.993750	112197777.40071651	104447.37830077764
1.000000	104899727.51252015	104042.03767465113
1.006250	99296739.331099957	89252.726435608856
1.012500	94327943.649962008	87131.85607085652
1.018750	90112839.773917601	86074.92700818814
1.025000	86791983.374712273	85929.770154051294
1.031250	84397618.178478435	86501.287013136738
1.037500	82851995.699154586	87563.622663364687
1.043750	81972762.448351815	88866.58489235233
1.050000	81485414.621668309	90140.67869683844
1.056250	82135217.107048452	127256.85823604978
1.062500	82727795.679618835	119753.03026972174
1.068750	83230909.885328829	112715.15471968456
1.075000	83563329.634275764	106454.03222542646
1.081250	83626006.557888448	101115.38389351087
1.087500	83303101.479087457	96675.108640213482
1.093750	82465776.234261349	92968.921440517326
1.100000	80978749.847059458	89751.740821745785
1.106250	79825723.187752038	73977.564043905746
1.112500	77790917.910253733	70958.90224954742
1.118750	75046101.282285973	68519.131491933091
1.125000	71748925.305433482	66753.872659106288
1.131250	68053032.703689128	65681.20393916493
1.137500	64097585.422323786	65198.101882399162
1.143750	59999612.619174302	65080.247213896655
1.150000	55849178.148350999	65022.637599624002
1.156250	52338311.838581204	52478.4084377564
1.162500	48687815.006078564	49028.714801547765
1.168750	45105345.972189873	45844.636499841559
1.175000	41759495.210085616	42880.201085123088
1.181250	38773081.240952648	40047.249948139608
1.187500	36217133.277942345	37257.570470851781
1.193750	34108499.205537185	34460.727504453476
1.200000	32411078.894332696	31667.053902500826
1.206250	31410308.172595937	54683.576611099852
1.212500	30644021.485348262	52490.241151929149
1.218750	30128104.312569249	50476.944042957541
1.225000	29849412.157713562	48771.691307742083
1.231250	29768423.706029963	47459.448420888482
1.237500	29820286.593622476	46561.831616968942
1.243750	29917764.185555629	46025.936949917719
1.250000	29956083.363004018	45728.418330878405
1.256250	30246069.844412394	52782.7302978351
1.262500	30319893.602233373	51159.486376737696
1.268750	30183069.803633608	50015.834872156534
1.275000	29841978.978280187	49410.556656637142
1.281250	29305452.626987249	49309.676223716589
1.287500	28582437.971711081	49586.39182192921
1.293750	27680548.443812001	50044.54322904726
1.300000	26605499.910583086	50454.454200124514
1.306250	25654172.442709271	21558.627046081714
1.312500	24511448.529821146	21439.234656202647
1.318750	23224386.840612337	21320.032181981122
1.325000	21871106.424540769	21166.28044962186
1.331250	20520660.139826737	20946.690485675124
1.337500	19229014.584230877	20641.500400758978
1.343750	18036325.588578183	20251.102442124218
1.350000	16965509.273029067	19801.697956865119
1.356250	16183901.197831839	12337.054101190846
1.362500	15469762.076780656	11831.610707990589
1.368750	14866446.663199449	11531.577057412402
1.375000	14399208.414880598	11491.183410683429
1.381250	14078168.419939047	11737.795320087984
1.387500	13897667.313525956	12259.800214015093
1.393750	13836652.023519207	13003.463847786372
1.400000	13860097.34519076	13880.534770609216
1.406250	14073850.044576976	15521.271058285962
1.412500	14296255.037881453	16065.545000944241
1.418750	14522928.944581404	16987.043466257081
1.425000	14738908.90119132	18225.878603403777
1.431250	14926884.321818139	19680.771741371693
1.437500	15067265.998430332	21230.150008943026
1.443750	15138634.305819888	22748.655045562133
1.450000	15118566.511257276	24116.902643195092
1.456250	15138447.713871742	19660.813317561089
1.462500	15046485.056536991	19572.737802208201
1.468750	14840110.150915166	19326.669479196986
1.475000	14532770.312241435	18941.812523821052
1.481250	14138918.153593659	18436.34086875082
1.487500	13672750.259595897	17826.853450933631
1.493750	13147264.507309876	17128.126010650431
1.500000	12573636.034314089	16353.031977646133
1.506250	12087951.436285945	9191.3291920198171
1.512500	11532359.546094012	8373.8782866364763
1.518750	10944075.595038261	7592.6128081986644
1.525000	10346047.855141163	6865.8625820186217
1.531250	9757339.2980404161	6210.4645370081098
1.537500	9192281.7944282442	5642.156057896309
1.543750	8660014.4939076528	5174.4094931793779
1.550000	8164406.3852658616	4814.9773714273324
1.556250	7764732.2601823192	11416.670009505666
1.562500	7393741.5736477766	10186.558851132526
1.568750	7054259.5929790568	9159.7712155319114
1.575000	6751486.8775638891	8360.9655990104602
1.581250	6487324.5185074043	7782.8052218301909
1.587500	6260362.2034435254	7384.2876031616115
1.593750	6066079.1937802033	7100.8167173011716
1.600000	5897258.2143788319	6861.5642563167221
1.606250	5796533.1071301997	5934.0586651688145
1.612500	5713843.9044245379	6165.2298776384296
1.618750	5646816.9647093769	6473.7513916116268
1.625000	5596084.0363744665	6840.5628011132876
1.631250	5561265.5703285607	7241.6784904463375
1.637500	5540830.1072972314	7651.0630851628721
1.643750	5532066.5899450481	8042.7168962959295
1.650000	5531169.5998221347	8391.9864305261781
1.656250	5593296.910432281	11067.993858205813
1.662500	5659702.4902112968	11173.429766783691
1.668750	5734901.9510047631	11222.819361928137
1.675000	5821293.7686385429	11213.773094919528
1.681250	5919641.1891750917	11145.208855125193
1.687500	6028847.489091034	11017.898080033587
1.693750	6145874.6673886413	10834.793410939785
1.700000	6265805.5696413089	10601.044631893743
1.706250	6451100.0461645965	9625.3663870206274
1.712500	6636664.6758900527	10192.184369947474
1.718750	6823707.0959881144	10700.359239207224
1.725000	7010451.0968026714	11144.560824202046
1.731250	7193305.7786517981	11523.001476523503
1.737500	7366896.6630172078	11836.637386759347
1.743750	7524228.1975860149	12088.452699157648
1.750000	7656977.6551450025	12282.890171128814
1.756250	7837968.8713776935	9093.285984612472
1.762500	7992847.8224503323	9344.8809058232218
1.768750	8121636.5718256384	9605.1733959496814
1.775000	8223171.4534386639	9863.0007711504168
1.781250	8295489.8680904089	10104.213767734343
1.787500	8335856.6635602787	10312.977514628999
1.793750	8340883.6734303115	10473.081534651405
1.800000	8306742.4146211222	10569.176904294893
1.806250	8309183.2053272771	7303.3418440651139
1.812500	8280525.7007572027	7104.4965140077975
1.818750	8221867.7642224627	6964.8546138358834
1.825000	8138520.2850572262	6906.5971366310241
1.831250	8034668.4968414977	6939.0987092379246
1.837500	7913219.0561249424	7056.7996813772679
1.843750	7775757.8264191542	7241.0170915438257
1.850000	7622618.3674585745	7464.8013479176689
1.856250	7523032.7766122567	8919.0378756276896
1.862500	7414227.6137433099	8926.3943571150558
1.868750	7302388.332681166	8893.3894323618697
1.875000	7193692.1654290408	8833.0336296080714
1.881250	7091969.5349078085	8761.9958636480442
1.887500	6998601.0845061261	8698.7613075197114
1.893750	6912559.7349273143	8660.839637563231
1.900000	6830597.768332961	8661.3941281173447
1.906250	6816895.3979918333	8872.5070521564448
1.912500	6805953.1598008722	8657.4372451668569
1.918750	6804322.6622594241	8414.8183611785171
1.925000	6813524.6650590729	8155.1103127148817
1.931250	6832659.3908435153	7888.9445446164154
1.937500	6858446.9552174602	7627.3347754663901
1.943750	6885409.0595426764	7381.5360510281744
1.950000	6906191.9465211239	7162.3891988489595
1.956250	6980363.1846274342	9059.773209344703
1.962500	7051841.3048662748	9330.3096055024107
1.968750	7118520.7740238309	9561.6451361802683
1.975000	7180701.0771903144	9759.24351411311
1.981250	7236914.3696980281	9928.21146368683
1.987500	7283925.1659684684	10072.296565024122
1.993750	7316860.5585949896	10192.989331573412
2.000000	7329470.9676611451	10288.834053468354
2.006250	7402049.1879494833	14517.804335773555
2.012500	7445578.7348600952	14714.372454043449
2.018750	7473150.615719405	14802.458214754242
2.025000	7487549.429070008	14775.116556631658
2.031250	7489804.8289643154	14628.29359460621
2.037500	7479094.6118691619	14361.510148746675
2.043750	7452792.9670521589	13978.524921042028
2.050000	7406663.8904496953	13487.968780814263
2.056250	7412708.3675598111	8371.134265234039
2.062500	7398639.6807221966	7936.4079355071044
2.068750	7370400.2400668664	7557.3300116770042
2.075000	7331988.2660131976	7251.4180172171018
2.081250	7285380.8253278537	7032.1457757702747
2.087500	7230443.6668609232	6908.0152733323985
2.093750	7164996.3549864395	6881.1650514003204
2.100000	7085032.7007472469	6945.9757938653274
2.106250	7058612.8943746891	9759.9703829559094
2.112500	7015361.2368638096	10092.732731583414
2.118750	6962286.7073665438	10392.460711516989
2.125000	6903409.7687073303	10635.562741838505
2.131250	6840759.9945352972	10802.626662658717
2.137500	6774289.9573796885	10880.267945093956
2.143750	6701937.8031996395	10862.048209396429
2.150000	6619838.5124282446	10748.660949228492
2.156250	6585478.3842953797	12012.961811672896
2.162500	6544050.4995001368	11876.009504508884
2.168750	6496994.7121465635	11623.326702266109
2.175000	6448247.6070431182	11272.076508533153
2.181250	6399723.9295722926	10843.944025556459
2.187500	6351202.2357892897	10364.611683813098
2.193750	6300360.2681748364	9862.6571637671605
2.200000	6242960.0570422616	9367.6028863402953
2.206250	6244183.9960461035	7008.7771308152178
2.212500	6228407.6752891839	7271.8886685332136
2.218750	6208190.4142526751	7543.6921944287378
2.225000	6186316.7271098243	7813.5246880265358
2.231250	6163553.4742293302	8068.5528871173456
2.237500	6138565.5520493891	8295.0634520709664
2.243750	6107982.4178444771	8479.3971606862196
2.250000	6066615.4493849259	8608.5681623349483
2.256250	6064256.8488236377	9718.3609554929244
2.262500	6054335.3429863751	9796.9596342090117
2.268750	6033690.808757931	9772.1408181484931
2.275000	6004475.6338311583	9644.1400772602574
2.281250	5967228.8625885984	9415.6342021174605
2.287500	5920809.4362530392	9091.5508070405376
2.293750	5862464.6387818567	8678.84560007033
2.300000	5788033.7485051127	8186.2495187752811
2.306250	5748715.0609155726	6377.4569909486281
2.312500	5693835.2213831991	6455.1618987972679
2.318750	5624578.6840095129	6541.293567779252
2.325000	5544664.6222288366	6639.951237060568
2.331250	5456435.5827281838	6751.3083977311944
2.337500	5360729.3451358005	6870.9302814852836
2.343750	5256875.6358855991	6989.937524253116
2.350000	5142817.6962573454	7095.8762052062893
2.356250	5067949.7667523324	5705.7983264786244
2.362500	4979243.0167743983	5872.8844270705622
2.368750	4883589.1008874988	6006.3907544272479
2.375000	4785445.5524372086	6105.3903125819506
2.381250	4687655.550665658	6168.0137514722819
2.387500	4591305.8681086078	6191.6099784308299
2.393750	4495713.2431874005	6173.1382069395095
2.400000	4398539.177995733	6109.6664599714823
2.406250	4341498.627621972	4766.0994557222593
2.412500	4278365.602758823	4861.5198020615971
2.418750	4214427.0713712145	5003.6806284532904
2.425000	4152354.7310614348	5177.8076919325949
2.431250	4093217.2714676	5364.4879012759029
2.437500	4036408.3529029363	5542.7701216736141
2.443750	3979694.9843530208	5692.4974241025302
2.450000	3919386.3008310571	5795.7751350319022
2.456250	3893011.9650392393	6087.7980217426657
