#List of files for average calculation
#C:\D+_tests\Symmetry\GPU\tt\Manual_Symmetry_Implicit_No_Charges_With_Hydration_Hybrid_VEGAS_Amp\Manual_Symmetry_Implicit_No_Charges_With_Hydration_Hybrid_VEGAS_Amp_1
#C:\D+_tests\Symmetry\GPU\tt\Manual_Symmetry_Implicit_No_Charges_With_Hydration_Hybrid_VEGAS_Amp\Manual_Symmetry_Implicit_No_Charges_With_Hydration_Hybrid_VEGAS_Amp_2
#C:\D+_tests\Symmetry\GPU\tt\Manual_Symmetry_Implicit_No_Charges_With_Hydration_Hybrid_VEGAS_Amp\Manual_Symmetry_Implicit_No_Charges_With_Hydration_Hybrid_VEGAS_Amp_3
#C:\D+_tests\Symmetry\GPU\tt\Manual_Symmetry_Implicit_No_Charges_With_Hydration_Hybrid_VEGAS_Amp\Manual_Symmetry_Implicit_No_Charges_With_Hydration_Hybrid_VEGAS_Amp_4
#C:\D+_tests\Symmetry\GPU\tt\Manual_Symmetry_Implicit_No_Charges_With_Hydration_Hybrid_VEGAS_Amp\Manual_Symmetry_Implicit_No_Charges_With_Hydration_Hybrid_VEGAS_Amp_5
#C:\D+_tests\Symmetry\GPU\tt\Manual_Symmetry_Implicit_No_Charges_With_Hydration_Hybrid_VEGAS_Amp\Manual_Symmetry_Implicit_No_Charges_With_Hydration_Hybrid_VEGAS_Amp_6
#C:\D+_tests\Symmetry\GPU\tt\Manual_Symmetry_Implicit_No_Charges_With_Hydration_Hybrid_VEGAS_Amp\Manual_Symmetry_Implicit_No_Charges_With_Hydration_Hybrid_VEGAS_Amp_7
#C:\D+_tests\Symmetry\GPU\tt\Manual_Symmetry_Implicit_No_Charges_With_Hydration_Hybrid_VEGAS_Amp\Manual_Symmetry_Implicit_No_Charges_With_Hydration_Hybrid_VEGAS_Amp_8
#C:\D+_tests\Symmetry\GPU\tt\Manual_Symmetry_Implicit_No_Charges_With_Hydration_Hybrid_VEGAS_Amp\Manual_Symmetry_Implicit_No_Charges_With_Hydration_Hybrid_VEGAS_Amp_9
#C:\D+_tests\Symmetry\GPU\tt\Manual_Symmetry_Implicit_No_Charges_With_Hydration_Hybrid_VEGAS_Amp\Manual_Symmetry_Implicit_No_Charges_With_Hydration_Hybrid_VEGAS_Amp_10
#Average Chi square (Sigma units): 1.6688397956852
#Sigma Chi square: 0.31738652469309
#Calculation was done on GPU
q [nm^-1]	Intensity [A.U]	Sigma [A.U]
0.000000	62833252989.003906	7.193062145859248e-006
0.006250	62893988184.870682	72660.164768056391
0.012500	62828281589.057411	157385.13365632857
0.018750	62641036341.626236	1459326.0329891015
0.025000	62339237862.808205	337100.37246714236
0.031250	61921333077.631859	2267119.5128594982
0.037500	61391904683.415443	612673.4142642545
0.043750	60747046193.61808	701958.1837291806
0.050000	59987287217.011047	829659.16076245194
0.056250	59108365970.186508	3269965.8914824212
0.062500	58114587510.473801	996742.1351357681
0.068750	57078128699.803909	992960.49031418061
0.075000	56076590570.816917	3136892.478712739
0.081250	54964763473.14624	1463083.8885501118
0.087500	53749765126.828148	6844897.843392102
0.093750	52449618164.871048	4245899.5744314985
0.100000	51075221313.643021	2720299.9951990098
0.106250	49632257335.967766	4104708.0787204141
0.112500	48137556743.515808	5254281.8704872131
0.118750	46596226434.552055	3996768.7171153817
0.125000	45014111851.608093	5520536.2854626905
0.131250	43400848751.458359	4680638.2523677731
0.137500	41862757811.285751	3314701.0266981008
0.143750	40327185991.230942	24989816.086332258
0.150000	38797826991.887978	7351009.1490977323
0.156250	37247035916.468735	8492693.7016014364
0.162500	35696051664.625809	12256098.48280088
0.168750	34159967192.668598	7444270.2656599376
0.175000	32638622286.47036	12031017.080800094
0.181250	31147681337.048607	4848286.0338291759
0.187500	29680352357.162025	6238094.616318943
0.193750	28246523147.693855	8806639.7820859961
0.200000	26851953248.93486	5307069.6921302956
0.206250	25573944269.817608	4759679.3110317206
0.212500	24325226559.227486	5817859.6433431134
0.218750	23114111276.414062	5649282.9956207825
0.225000	21941460509.909721	6721909.4731271788
0.231250	20810189269.78249	6737116.3743321458
0.237500	19724506590.414146	6631581.859427426
0.243750	18682765046.976479	4537902.3228703365
0.250000	17687011912.293659	4493910.9212628864
0.256250	16734875681.020996	4749864.6767336912
0.262500	15827964017.006481	4478119.2694568522
0.268750	14974414706.435556	3807059.6441492941
0.275000	14185305999.016407	3206769.7824535882
0.281250	13435125881.930756	3262753.3685755287
0.287500	12720027617.701769	3168257.0769488011
0.293750	12040689165.464642	3185427.9652161179
0.300000	11396271845.912107	3552286.0851537623
0.306250	10785208939.789593	3452084.455810694
0.312500	10206922983.941528	3955296.8396241129
0.318750	9657567036.0393486	4391412.987995699
0.325000	9138688288.7066669	4035488.0387809211
0.331250	8646257224.9416351	4194529.0509570176
0.337500	8194513534.9699841	4848542.2814047756
0.343750	7767490728.5151825	4581441.5658083018
0.350000	7360234290.9255314	4379803.838054291
0.356250	6972201278.5946474	4087137.9266713159
0.362500	6602214552.4305134	3718992.3473357963
0.368750	6249142266.6863241	3990702.3030189308
0.375000	5911944737.7597895	3142936.1427079649
0.381250	5589105486.5995016	3825821.0546270306
0.387500	5281049175.3149281	2671403.2479221616
0.393750	4986077670.9433966	2721250.3538018335
0.400000	4703244564.9889965	2695771.3523858264
0.406250	4443916902.5400867	2633653.0413522841
0.412500	4192086423.1136045	2610799.0866646594
0.418750	3950270370.0677428	2906950.1622683122
0.425000	3717227303.9077501	2562654.3525900408
0.431250	3492843841.7452631	2618673.3529375046
0.437500	3277744312.3126197	2533518.4115325063
0.443750	3071727243.4669924	2471206.745149184
0.450000	2874216507.8635478	2484004.4950294378
0.456250	2685454714.4955268	2454735.6352817793
0.462500	2505334161.1227379	2418428.5607988355
0.468750	2334640661.5513163	1732573.2784073539
0.475000	2176256342.4972849	1838899.9278691523
0.481250	2025350805.18325	1738291.7539070749
0.487500	1881615399.7016292	1551163.7166301219
0.493750	1746029355.1751435	1582030.8649016749
0.500000	1617993466.0252976	1636571.0590515446
0.506250	1497615147.3353658	1466451.040125659
0.512500	1384971024.6030066	1690595.9226720163
0.518750	1279940293.2203884	1377303.1863578002
0.525000	1182278074.7609231	1280347.1250994066
0.531250	1091687512.4250998	1162465.6944686053
0.537500	1009570719.7424834	639980.55684025737
0.543750	934173236.37443376	571306.40636897949
0.550000	864706510.62229216	507127.68046354083
0.556250	801012615.57249093	498856.68223824009
0.562500	742776229.04360032	481485.1585030774
0.568750	689620595.99469876	478304.20737782831
0.575000	641458736.83438694	483572.90921485017
0.581250	597796689.94815242	516872.40400679933
0.587500	558225953.11815035	529563.75648690795
0.593750	522514934.34927511	539706.40310258023
0.600000	490285595.50120842	572646.8668999112
0.606250	462148779.44774997	533248.7512572367
0.612500	436684204.98079842	477597.85683364619
0.618750	413505715.09590411	459894.90396412916
0.625000	392331319.95366973	386700.08837910992
0.631250	372873734.09580624	380763.59967443073
0.637500	355016435.88239235	339523.9162620838
0.643750	338442721.86012614	306765.77948344738
0.650000	323051186.62036633	253915.79327028146
0.656250	308623196.62254798	235490.93871134811
0.662500	295102042.309614	218416.28791996243
0.668750	282616491.58606797	226870.77414010101
0.675000	271300698.0837909	193523.31679814935
0.681250	260245381.82631117	170822.70343182838
0.687500	249364525.29142457	180962.70070995842
0.693750	238719977.47004452	137118.32635858402
0.700000	228206887.43616027	173706.23317322606
0.706250	217991978.54749623	152343.52215315134
0.712500	208018990.88755527	146218.8877726956
0.718750	198357911.12537175	134019.71562207243
0.725000	188982140.01147002	166925.43533667753
0.731250	180186004.97523052	161688.19060223782
0.737500	172101421.81463933	231100.56446910795
0.743750	164391032.44084758	191692.52872893008
0.750000	156957597.17925936	224220.61169610106
0.756250	149762678.73653391	214884.17711560795
0.762500	142909401.29207221	222053.83391250097
0.768750	136484995.93881002	205596.24725368642
0.775000	130506605.49929115	204624.38266541087
0.781250	125022826.06084323	208781.22105973877
0.787500	120040566.4773906	211707.46009646615
0.793750	115567244.42455152	199345.46345993428
0.800000	111560855.1592226	190197.82179099979
0.806250	108266600.41643021	167609.59620004936
0.812500	105334193.4840837	153686.40180193062
0.818750	102734034.95363149	150118.40076941682
0.825000	100486150.95710596	141224.97075507129
0.831250	98524869.858278707	122830.13369937825
0.837500	96849897.538244426	138484.94190883194
0.843750	95446223.860995963	140060.77124043164
0.850000	94190864.219831958	134047.94652300861
0.856250	93062359.360630959	127181.78378087912
0.862500	91967987.551303059	136485.53990974769
0.868750	91001181.413180426	119780.44554807786
0.875000	90174876.479903623	117510.33215317148
0.881250	89297208.927171305	120730.45874278843
0.887500	88364826.189830214	118782.25381465194
0.893750	87337931.61407949	127243.60782944695
0.900000	86201800.082694143	122024.11813439464
0.906250	84913217.648355454	131211.35551279411
0.912500	83460962.427715257	130353.44877832512
0.918750	81818208.777341455	136316.91453938856
0.925000	79956837.139688253	141213.37038865109
0.931250	77869057.525709435	143893.08387600549
0.937500	75646052.778209567	121790.66771471401
0.943750	73469617.457187936	114871.65179433995
0.950000	71150997.509289607	109818.26065678033
0.956250	68718540.795337752	105562.4459123617
0.962500	66189558.415009163	114529.09620357362
0.968750	63616513.76767198	100598.96800841074
0.975000	60995344.663281426	99634.701562251867
0.981250	58359267.040272176	99388.829628899548
0.987500	55732929.513555035	99599.93276799882
0.993750	53142267.259796575	100014.91396861119
1.000000	50614279.128198542	100415.28271734514
1.006250	48353903.550647512	77162.738429074103
1.012500	46170513.57594239	70882.679010955195
1.018750	44123362.695232771	63823.990804933113
1.025000	42234160.113959417	56517.771182838362
1.031250	40515256.014739811	47209.214197961322
1.037500	38991863.584168971	41537.409388827116
1.043750	37655606.343235493	36757.858585539136
1.050000	36512885.856247291	36240.777164893167
1.056250	35565940.474503085	40192.439054829381
1.062500	34805939.034188576	48086.798624889379
1.068750	34225166.154268719	54082.752819297013
1.075000	33856817.616171911	52195.945878222599
1.081250	33638763.06521517	51046.951933040749
1.087500	33556470.566964477	50728.614220990552
1.093750	33594187.054676503	49509.683786032729
1.100000	33729465.555295989	51867.358677624106
1.106250	33942679.911748722	54504.194070391743
1.112500	34213625.418588027	56893.524258054851
1.118750	34518280.194525488	59524.477648083965
1.125000	34832884.708076149	62193.035129474694
1.131250	35133158.213553473	64710.114460243225
1.137500	35455833.335687034	47957.409938338744
1.143750	35735624.43164894	50242.367317624143
1.150000	35946894.562302954	52725.633527195678
1.156250	36076982.139752984	55315.698532707414
1.162500	36115482.633653641	57927.838551545734
1.168750	36054347.742418319	60697.459787053594
1.175000	35886256.902346686	62905.448707192401
1.181250	35607373.442035429	65126.630355487832
1.187500	35214425.594063818	67082.834517261319
1.193750	34706206.577333532	68718.719141186579
1.200000	34083447.040066496	69988.984604804835
1.206250	33413396.234005772	71542.043759721928
1.212500	32648664.569893789	69330.349196900672
1.218750	31783745.061060507	67152.696474609227
1.225000	30827712.245351959	64893.864492093555
1.231250	29811023.787003677	62905.881728878092
1.237500	28733022.730595976	60816.429703396869
1.243750	27613725.982452381	58722.726749534442
1.250000	26467725.09007521	56597.522049358871
1.256250	25306081.45935645	51605.81989014495
1.262500	24152135.676695522	52133.112029095326
1.268750	23033122.115163703	50320.695243386726
1.275000	21937841.06693437	48192.816233332465
1.281250	20869386.713742077	45843.620658277985
1.287500	19841473.329344623	43228.535914958033
1.293750	18865517.591045663	40329.771606261274
1.300000	17950711.592498429	37164.518630657731
1.306250	17103599.745723296	34042.078024850351
1.312500	16330747.932329943	30346.385862089053
1.318750	15633992.686525539	27033.08006536512
1.325000	15015843.388776165	24616.190194737421
1.331250	14474680.662522262	22318.608290298787
1.337500	14026644.082232958	38601.329833219716
1.343750	13641682.103575852	38381.861551985501
1.350000	13321789.009270778	38289.657613101983
1.356250	13062777.860833986	38247.525328980191
1.362500	12858554.908869822	38300.547461033013
1.368750	12702850.580661971	38484.004322772009
1.375000	12589216.322923148	38760.161933692747
1.381250	12511018.715901567	39121.674316276483
1.387500	12461432.013375344	39543.655765934702
1.393750	12433275.70490218	39996.129966956571
1.400000	12418782.475364406	40444.959661193534
1.406250	12440857.5704819	24413.592306541235
1.412500	12464008.585377725	23457.586345369007
1.418750	12474346.019049037	22819.677140558018
1.425000	12468237.433849717	22156.041352781111
1.431250	12442715.812408872	21557.953001558984
1.437500	12397032.91816153	21171.899465966366
1.443750	12330748.458877156	20886.969061612846
1.450000	12244205.405490547	20683.301694897167
1.456250	12137583.947403152	20278.350365128983
1.462500	12011715.75395737	20442.785140690848
1.468750	11876156.474128077	25747.857211337719
1.475000	11767924.574177546	25715.523044009795
1.481250	11625474.354592275	25526.019297528917
1.487500	11453949.950918447	25184.607360707214
1.493750	11259694.081562949	24704.250228662982
1.500000	11049667.298892472	24104.877108574878
1.506250	10830827.163736098	23412.388752924664
1.512500	10609560.883678295	22657.727875136829
1.518750	10391200.051384278	21875.160109324472
1.525000	10179630.438781872	21100.716339950613
1.531250	9977091.081463486	20370.023411407838
1.537500	9836031.7691931576	24544.228299628463
1.543750	9703984.2323878147	24294.463079351899
1.550000	9573144.4145931024	24032.461751739804
1.556250	9449957.1034630723	23759.795572102546
1.562500	9340271.3951138966	23477.459266574744
1.568750	9248877.0197655	23185.198096314929
1.575000	9179164.4208999574	22881.269694320446
1.581250	9132910.2480506636	22562.418475735165
1.587500	9110197.1712144744	22224.089023775698
1.593750	9109478.2353421636	21860.886994702323
1.600000	9127761.8509126101	21467.105891182091
1.606250	9208064.6312287487	14517.309691331897
1.612500	9302725.3191673644	14338.149252517649
1.618750	9407270.7520236596	14231.251098674833
1.625000	9522109.5605733693	14436.111689904108
1.631250	9647658.325217763	14249.068447292728
1.637500	9783020.60377937	14316.106238580427
1.643750	9925109.0659090783	14450.531819061396
1.650000	10071150.02511305	14706.476143305397
1.656250	10217816.428606691	15176.130210205714
1.662500	10360932.716348732	14998.889931291489
1.668750	10494135.290464628	26135.840717950494
1.675000	10662064.880861744	26290.013258489977
1.681250	10819314.42416927	26388.627144497281
1.687500	10965947.284484249	26434.455824078792
1.693750	11101714.437681938	26428.308435259718
1.700000	11226058.348444868	26369.825220321989
1.706250	11338171.185522534	26258.750948883902
1.712500	11437099.040041421	26096.467182906385
1.718750	11521843.139279023	25887.049350125701
1.725000	11591485.897185791	25638.144915445646
1.731250	11645294.458522147	25361.150897140822
1.737500	11716038.234876223	23048.031494931962
1.743750	11782135.764236853	22532.990472848272
1.750000	11835762.398062687	22194.758137445024
1.756250	11878410.020560306	22134.951637798324
1.762500	11911415.719317967	22324.996306985824
1.768750	11935820.982407719	22800.485963728068
1.775000	11952486.713595862	23562.550100539975
1.781250	11962101.406673502	24598.933014705621
1.787500	11965198.423412947	25886.786025612433
1.793750	11962159.002138169	27395.904158505298
1.800000	11953201.504080415	29091.39369954104
1.806250	11970074.746639134	36820.162702173373
1.812500	11989450.127531955	36622.093064124623
1.818750	12007039.615460027	36362.316828710631
1.825000	12024106.751050204	35851.752254605941
1.831250	12040800.465896579	35757.974416586789
1.837500	12058292.421339171	35476.097937971019
1.843750	12076460.649102589	35216.375044141765
1.850000	12095383.749869604	35029.532556105842
1.856250	12114552.953273037	34917.605030435079
1.862500	12133262.273924144	34820.595418824058
1.868750	12176476.046267092	19787.398336020513
1.875000	12233433.840576332	20088.846841401719
1.881250	12290139.191126635	20638.542624633847
1.887500	12346633.533730453	21202.345032319681
1.893750	12403070.558314275	21935.961934194453
1.900000	12459219.150693322	22721.983662917391
1.906250	12514721.417916281	23586.910392349993
1.912500	12568947.810125524	24523.831205578168
1.918750	12620999.314347953	25527.316234418609
1.925000	12669644.009801071	26590.768543602713
1.931250	12713578.531219414	27714.977379547909
1.937500	12784522.244534234	47398.178233422012
1.943750	12862686.230326077	47980.7513672161
1.950000	12936233.13428211	48434.221235076002
1.956250	13005741.096078923	48770.297825563015
1.962500	13071865.995331068	49032.633423487321
1.968750	13134676.120846594	49224.13183136603
1.975000	13194405.709038202	49444.098803057699
1.981250	13250112.373831648	49514.914272915026
1.987500	13301727.025137447	49661.291014605129
1.993750	13348194.095665639	49885.34345992827
2.000000	13387725.130724199	50056.70036909046
2.006250	13466367.299277509	22414.628868207288
2.012500	13544695.24732852	22314.309468727908
2.018750	13617934.22763586	22555.282820010929
2.025000	13686581.968090039	22630.355281284272
2.031250	13750890.09451152	22884.46220787237
2.037500	13810689.405605625	23226.604895103592
2.043750	13865484.579810763	23658.943772463219
2.050000	13914368.445349846	24253.884903316139
2.056250	13955729.020225218	24720.423808291056
2.062500	13988184.286699021	25434.924506358147
2.068750	14044933.60387148	35227.702541359744
2.075000	14111284.574448552	35802.311235813351
2.081250	14167565.811911847	36370.793765925344
2.087500	14214141.138471901	36936.248719492403
2.093750	14251243.184647268	37485.699250407488
2.100000	14278716.066525197	38008.372338171721
2.106250	14296043.821060877	38492.155891602459
2.112500	14302313.976264751	38966.334221319928
2.118750	14296230.463720256	39192.359100661168
2.125000	14276725.77058709	39570.17875061099
2.131250	14241457.338516792	39753.852424304365
2.137500	14221146.400862521	21785.59441616667
2.143750	14213730.172487089	21466.356832995581
2.150000	14190344.736444686	21454.018304572543
2.156250	14151860.885829249	21765.877224566666
2.162500	14098469.566381585	22307.902933937999
2.168750	14030723.382195864	23106.659373645598
2.175000	13948557.672353033	24096.620137159305
2.181250	13851670.812790448	25227.706065394988
2.187500	13739533.481735919	26453.103601103729
2.193750	13611371.220392859	27730.146214180906
2.200000	13466211.217578942	29020.749788807221
2.206250	13380168.283292085	38698.774822547362
2.212500	13260251.454468515	38444.099870954851
2.218750	13125040.419658083	37804.685802458473
2.225000	12976455.629905244	37767.979883384505
2.231250	12816268.121413684	37105.47315246403
2.237500	12644790.703076417	36447.844838017882
2.243750	12463046.048809212	35674.775470222703
2.250000	12271247.663834523	34885.054612924767
2.256250	12068866.803501658	33732.868707623835
2.262500	11858454.852461329	32643.215359992129
2.268750	11660206.42922828	26710.638106268951
2.275000	11479337.56738876	25843.919702104926
2.281250	11288509.952315513	24885.882653460503
2.287500	11089819.571763333	24346.293118316091
2.293750	10884640.897692945	23733.404097689498
2.300000	10674215.228204066	23219.997290570474
2.306250	10459294.928878894	22809.54808964931
2.312500	10240194.089804592	22567.361852828315
2.318750	10017181.417182418	22293.855485864566
2.325000	9789645.4685296696	22233.880054600897
2.331250	9557346.9835690632	22135.182234909913
2.337500	9330161.7380452715	38073.284639915284
2.343750	9128052.8481598198	37056.179527481778
2.350000	8921117.1599353254	36131.132594525989
2.356250	8710809.2731654365	35050.95534420359
2.362500	8498044.1102152951	33921.420388533137
2.368750	8283420.1956461025	32759.422330189071
2.375000	8067255.4892813135	31581.388652536367
2.381250	7849570.1274618683	30402.502755826365
2.387500	7630162.7028015032	29236.419108849193
2.393750	7408696.839859481	28095.059524865967
2.400000	7184710.0656842664	26988.019523529601
2.406250	7004426.1256858883	42260.425107545088
2.412500	6806794.0051127616	40776.635682014945
