#List of files for average calculation
#C:\Lea\runGPU\2\3Shells_cylinder_Vegas\3Shells_cylinder_Vegas_1
#C:\Lea\runGPU\2\3Shells_cylinder_Vegas\3Shells_cylinder_Vegas_2
#C:\Lea\runGPU\2\3Shells_cylinder_Vegas\3Shells_cylinder_Vegas_3
#C:\Lea\runGPU\2\3Shells_cylinder_Vegas\3Shells_cylinder_Vegas_4
#C:\Lea\runGPU\2\3Shells_cylinder_Vegas\3Shells_cylinder_Vegas_5
#C:\Lea\runGPU\2\3Shells_cylinder_Vegas\3Shells_cylinder_Vegas_6
#C:\Lea\runGPU\2\3Shells_cylinder_Vegas\3Shells_cylinder_Vegas_7
#C:\Lea\runGPU\2\3Shells_cylinder_Vegas\3Shells_cylinder_Vegas_8
#C:\Lea\runGPU\2\3Shells_cylinder_Vegas\3Shells_cylinder_Vegas_9
#C:\Lea\runGPU\2\3Shells_cylinder_Vegas\3Shells_cylinder_Vegas_10
#Average Chi square (Sigma units): 2.4809059001034
#Sigma Chi square: 1.7680918945072
#Calculation was done on GPU
q [nm^-1]	Intensity [A.U]	Sigma [A.U]
0.000000	3574187420.4544611	2.7530206164819037e-007
0.006250	3574701242.5839705	1304.0278088660289
0.012500	3573677397.8853998	12675.938465615933
0.018750	3571154405.9764929	3199.2370424288315
0.025000	3567108810.981668	17207.097783949863
0.031250	3561575343.0547585	7318.1139201538781
0.037500	3554554793.3563452	10382.513110276041
0.043750	3546068555.3951058	3117.7410393578521
0.050000	3536116432.1629586	16451.181648704409
0.056250	3524741767.2084413	8743.6457462412218
0.062500	3511937287.0808959	13989.500975026858
0.068750	3498568865.17769	12434.272132247985
0.075000	3485456489.946312	20139.835167735062
0.081250	3470904009.606761	81744.556328237391
0.087500	3455013220.7930818	20980.738077154212
0.093750	3437731522.1450372	31912.321716893261
0.100000	3419070273.0962677	98959.404079473228
0.106250	3399099328.3327112	147421.76395057054
0.112500	3377884003.0616775	93144.459021716641
0.118750	3355341904.2579484	172672.81873680052
0.125000	3331636200.4755812	113716.50542520288
0.131250	3306724283.1187468	74597.101664359434
0.137500	3282083271.0303354	39502.692888522324
0.143750	3256862658.1771035	129889.98757122549
0.150000	3230549454.829423	134170.78423962291
0.156250	3203026993.9494042	138777.93307266705
0.162500	3174486263.8734341	54499.620844562531
0.168750	3144784197.6232452	118741.29161680806
0.175000	3113977264.2251587	236690.62759020398
0.181250	3082433125.067246	66780.073102897397
0.187500	3049708672.5676379	171292.44176104962
0.193750	3016233312.1028337	176863.90374340035
0.200000	2981976818.9876022	79603.802222840852
0.206250	2948665070.8391671	76188.166910539774
0.212500	2914376958.3140483	126611.08387781201
0.218750	2879382566.4712954	83667.047233301229
0.225000	2843413092.9383607	204180.41070406773
0.231250	2806836387.1985884	254269.14441507752
0.237500	2769580967.5841599	264694.72052694141
0.243750	2731721080.9565864	180830.71744174065
0.250000	2693348603.5062318	102543.08130609637
0.256250	2654320618.4794364	128591.1434012401
0.262500	2614871910.3403616	109851.1253708138
0.268750	2575520743.0882864	118496.06147318373
0.275000	2536431313.5188951	288454.98402091279
0.281250	2497049762.6414485	126204.9173766145
0.287500	2457110092.1132421	166919.13546486918
0.293750	2416764398.1180573	243502.26589638836
0.300000	2376263863.4617791	137467.06790511491
0.306250	2335327674.5982471	104818.72225504322
0.312500	2294232206.0957823	198939.41123087506
0.318750	2252989494.8926473	175195.3374119355
0.325000	2211564233.0190053	258670.68578304833
0.331250	2170150128.7546973	154923.20503377882
0.337500	2129167772.5367897	167069.13441208028
0.343750	2088331916.1084657	416394.52524364233
0.350000	2047638309.4570546	237917.15370968019
0.356250	2006805900.4383392	201108.81886996634
0.362500	1966015979.3086171	178900.0819098583
0.368750	1925194906.4781296	279369.69417241128
0.375000	1884575295.0930717	184201.02846167501
0.381250	1844014732.5640159	198409.28912214361
0.387500	1803663509.6616523	240326.61669307557
0.393750	1763442480.369297	282026.13379889581
0.400000	1723676750.9648595	193480.03997075773
0.406250	1684656271.3765111	214910.55695448961
0.412500	1645715386.709568	209808.25325819402
0.418750	1607057100.1827397	283423.0828159363
0.425000	1568724565.821898	223537.45920300984
0.431250	1530664713.16925	256935.19769117274
0.437500	1492892103.7186222	269070.31114679622
0.443750	1455588965.7716517	254470.44681403416
0.450000	1418689080.4798782	248295.17256178445
0.456250	1382177948.4574282	261587.16595147751
0.462500	1346186580.7742157	227768.57151956999
0.468750	1310683840.2503669	244950.32439602274
0.475000	1275790568.1465936	241945.30285817984
0.481250	1241366051.7537341	244626.34916984566
0.487500	1207322778.1237915	229086.80568723549
0.493750	1173858529.0134976	269460.02450800966
0.500000	1140850571.4717898	302911.40407716052
0.506250	1108435627.4937358	239467.93777889165
0.512500	1076509120.3965855	258185.70768781938
0.518750	1045169632.4678848	239498.96423848852
0.525000	1014386948.46868	237982.71773889885
0.531250	984192238.14620185	236265.81185081735
0.537500	954644962.79618859	183695.03445895002
0.543750	925540110.83708501	228584.10571767591
0.550000	897092417.76868951	206422.14987318646
0.556250	869207500.94979286	172428.1732912671
0.562500	841859833.40273726	173038.91092743661
0.568750	815102588.15926111	158054.83801730472
0.575000	788903382.22034299	146485.08470743307
0.581250	763353965.08052802	190386.56150755665
0.587500	738418658.69548106	149964.00176037115
0.593750	714054486.81096399	156630.1894575957
0.600000	690323375.81391859	142158.10867422551
0.606250	666908957.21473598	132092.90451011743
0.612500	644212875.90077472	98126.870437662044
0.618750	622112645.35848582	130523.09316172864
0.625000	600585834.72958314	122812.84273562259
0.631250	579618932.91621554	120058.74809627532
0.637500	559209669.45623624	94002.733088970024
0.643750	539374922.68859267	110586.26582278713
0.650000	520114180.17789412	113028.64359023936
0.656250	501398811.04224384	111114.2730000492
0.662500	483235167.21579683	109410.28444186199
0.668750	465596029.62495786	154553.28877833893
0.675000	448362360.74059165	169713.7503401257
0.681250	431658148.48350561	142693.09743537413
0.687500	415459761.71956027	141535.50919213783
0.693750	399768263.07900089	121193.72831931482
0.700000	384559325.3307218	129336.59206894708
0.706250	369845102.78715038	118565.54952297841
0.712500	355598238.19966543	111211.58579971141
0.718750	341844256.16637695	107874.80116326307
0.725000	328521281.53242505	101280.33196435662
0.731250	315669257.20813382	103283.95669125453
0.737500	303238935.97885358	61824.310872105052
0.743750	291133223.72269762	62956.192211666457
0.750000	279455447.65640712	68067.669202509569
0.756250	268181432.18360329	62147.682225133227
0.762500	257299223.45211607	65536.447044549597
0.768750	246805824.52023864	66427.461661290567
0.775000	236688969.74330264	67272.029083703048
0.781250	226938252.60690111	68058.248192241866
0.787500	217546385.1990656	64976.125765702345
0.793750	208497824.79187059	76449.967752379409
0.800000	199781197.9199324	69974.026838719554
0.806250	191268401.86828107	52280.539910091502
0.812500	183128161.57294488	49637.116281272021
0.818750	175295832.07017335	47088.441175338339
0.825000	167758260.19341555	45192.791125434698
0.831250	160513242.15115473	40988.076741499804
0.837500	153540733.76682502	43359.597805743702
0.843750	146831983.10087729	47646.014299311682
0.850000	140393019.01429057	38886.944057519162
0.856250	134201936.68099067	42187.294045163493
0.862500	128247407.2550569	38210.628129148194
0.868750	122529801.44956975	39488.620379707914
0.875000	117012295.13246194	37511.998518217559
0.881250	111713216.68794377	35822.449139292483
0.887500	106625547.49400857	34722.743004446456
0.893750	101738678.59809266	33254.676821305802
0.900000	97048922.678557545	33605.057370352464
0.906250	92545661.079888612	31635.605917576129
0.912500	88224532.372552946	31116.710893710198
0.918750	84077852.431759328	30791.87503559461
0.925000	80102162.198505297	31761.059575682488
0.931250	76284237.019584998	30366.175028069436
0.937500	72635587.774346545	31789.202813583666
0.943750	69131622.966310605	30599.925400392483
0.950000	65771899.754102722	30719.895476344667
0.956250	62552973.234187722	28503.449231444294
0.962500	59468077.899836436	27587.007488520732
0.968750	56513088.31846343	26751.260305104948
0.975000	53683601.883234516	25990.17063950904
0.981250	50975437.529953405	25297.249969699584
0.987500	48384561.176213905	24665.65608207912
0.993750	45907239.08495824	24088.366202721241
1.000000	43539826.108631544	23558.273036627135
1.006250	41298694.18470218	24470.545336040439
1.012500	39160064.983253539	23321.256764971655
1.018750	37118923.04218331	22251.304842239966
1.025000	35172438.636796445	21303.547267159182
1.031250	33317589.586321123	20370.728185416159
1.037500	31552245.200651042	19567.512756589924
1.043750	29873928.765772663	18857.959512177211
1.050000	28280294.58588209	18481.379275666121
1.056250	26769649.731599614	17716.092425384526
1.062500	25339560.2420853	17277.553492951112
1.068750	23996830.625570673	10545.186548467025
1.075000	22747944.821509738	10520.733054835649
1.081250	21570437.414341353	10461.10204409894
1.087500	20462693.770363182	10356.539523043692
1.093750	19423266.480991483	10201.628789618739
1.100000	18450765.684718277	9995.0442669655786
1.106250	17543863.687202472	9739.5485860797289
1.112500	16701292.39625698	9442.283771482078
1.118750	15921766.011513531	9115.3548233659603
1.125000	15203825.346495524	9032.6984314552228
1.131250	14546938.862003366	8451.5590722485449
1.137500	13970074.465877701	8304.6398132708491
1.143750	13455506.63247624	8397.1543268512942
1.150000	12994432.696188474	8581.1133290976795
1.156250	12585808.312911335	8854.3212095449089
1.162500	12228582.669643801	9215.7195284454865
1.168750	11921695.516685732	9664.8780713217529
1.175000	11664069.310118645	10201.477739590191
1.181250	11453505.190703388	11464.723047940908
1.187500	11292066.995371353	11534.109445254751
1.193750	11175323.565172823	12327.120150352552
1.200000	11103073.212610371	13201.404969886747
1.206250	11100723.047390217	5323.6529256423973
1.212500	11140386.461257964	5682.8646201145411
1.218750	11218733.63955849	6155.4386271595931
1.225000	11333888.800049137	7465.9520125900162
1.231250	11486558.712505713	7377.7205064868513
1.237500	11673460.492272455	8099.7779226024286
1.243750	11893890.479680125	8881.1263923434562
1.250000	12146280.264422927	9636.0853478229965
1.256250	12429548.697647821	10589.365301748965
1.262500	12741719.722693099	11503.537811423845
1.268750	13090639.347406521	11518.888897517265
1.275000	13489185.075767878	11253.225027909868
1.281250	13911661.296290994	11088.647835464802
1.287500	14356531.311597973	11038.249257118714
1.293750	14822223.061869431	11109.929405215022
1.300000	15307116.132128719	11305.387495658801
1.306250	15809576.664442495	11620.111961325338
1.312500	16327900.570808118	12044.300830554412
1.318750	16860348.132261984	12564.431612361192
1.325000	17405135.172135301	13164.947745062096
1.331250	17960422.54575723	13829.685159187205
1.337500	18545481.820313405	10619.845976676439
1.343750	19157983.019685771	10583.107871433194
1.350000	19776972.010536	11433.395236829218
1.356250	20399411.811053585	10845.131204237668
1.362500	21024932.839464691	11142.060441595579
1.368750	21651408.958453804	11541.520699388782
1.375000	22277120.356329538	12033.475459082812
1.381250	22900357.274505969	12606.033117753914
1.387500	23519405.77507887	13246.466328968298
1.393750	24132539.231207047	13941.985182890587
1.400000	24738066.388217907	14680.30422013454
1.406250	25385377.151445534	19215.499812353828
1.412500	26021441.091331951	18878.636539617291
1.418750	26646261.820714436	18639.442131272848
1.425000	27258956.730170179	18876.843628207054
1.431250	27856414.771560825	18443.772706491356
1.437500	28438977.053050857	18478.150442571241
1.443750	29004731.34524392	18592.273218337716
1.450000	29552623.546846818	19029.30671545014
1.456250	30080648.038852572	19028.698394615938
1.462500	30588334.51197917	19334.19099848071
1.468750	31105784.466216691	14331.591268286133
1.475000	31626807.123750884	14491.696566862582
1.481250	32124303.191111047	14654.310240960596
1.487500	32597380.565232806	14816.809825661849
1.493750	33045238.936203979	14976.983414534923
1.500000	33467113.660919618	15132.969053711533
1.506250	33862310.994423389	15283.230395990735
1.512500	34230197.908101186	15426.522458738551
1.518750	34570193.929991469	15561.8631090862
1.525000	34881796.025151566	15688.5229478286
1.531250	35164538.650921367	15805.993970619393
1.537500	35431114.899459645	29806.448389447061
1.543750	35712609.801629059	30597.23680941253
1.550000	35963483.639631316	31348.381849352776
1.556250	36183664.30753804	32060.571306646831
1.562500	36373133.312473819	32734.546232048808
1.568750	36531941.949845508	33371.121847443188
1.575000	36660202.884809591	33971.144977318574
1.581250	36758086.054076694	34535.466457936731
1.587500	36825821.890966952	35064.96654822804
1.593750	36863687.699624777	35560.483076335098
1.600000	36872012.905898482	36022.849668434617
1.606250	36899808.670032904	13440.124641899392
1.612500	36902277.656930469	13558.043913403502
1.618750	36874036.856048636	13345.470520502666
1.625000	36816296.490075871	14113.149357379836
1.631250	36729836.072374202	13926.572742854802
1.637500	36614810.245258152	14036.301886182006
1.643750	36472248.39274887	14159.762453217299
1.650000	36303000.147278726	14284.666986039241
1.656250	36107924.018318072	14410.454922172426
1.662500	35887902.937189765	14536.309273501158
1.668750	35659456.381060898	23753.289509450915
1.675000	35437102.658236988	23315.893564603557
1.681250	35189378.488286152	22894.076560674781
1.687500	34917403.504963815	22491.572319311945
1.693750	34622312.447991595	22111.439779074131
1.700000	34305254.435119487	21755.995382070712
1.706250	33967394.873308823	21426.760509994081
1.712500	33609884.433297746	21124.400748350574
1.718750	33233894.172001053	20848.754826299602
1.725000	32840585.712886386	20598.827587109012
1.731250	32431113.840777237	20372.844052473676
1.737500	32035568.614085358	23450.513689600823
1.743750	31630501.454342254	23471.357121611225
1.750000	31209181.626077093	23463.88801317964
1.756250	30772882.311531145	23427.754785046644
1.762500	30322861.393831652	23362.695431649154
1.768750	29860366.688619651	23268.544324432005
1.775000	29386597.291814484	23145.231283575773
1.781250	28902751.040916704	22992.799944714559
1.787500	28409988.626657117	22811.410986213647
1.793750	27909438.019661389	22601.353517337149
1.800000	27402201.834154777	22363.060883630613
1.806250	26924151.168984838	16798.152354017762
1.812500	26428016.315689076	16635.576363678381
1.818750	25925150.686620019	16450.304664972751
1.825000	25416720.595552586	16194.548047880684
1.831250	24903681.096213482	16009.156431191363
1.837500	24387188.753018696	15752.557648977816
1.843750	23868205.130337402	15471.862328488756
1.850000	23347680.288630135	15167.331615613919
1.856250	22826325.06288413	14820.326963587007
1.862500	22305583.639782619	14489.225642312154
1.868750	21786573.223027043	12785.811397582975
1.875000	21283399.015382469	12744.61326221431
1.881250	20780217.809090223	12705.176013645434
1.887500	20277904.340600468	12627.102222108364
1.893750	19777239.753111601	12530.253137098982
1.900000	19278943.466406532	12420.057517861085
1.906250	18783715.323413324	12302.370483655825
1.912500	18292196.135040149	12183.35757777324
1.918750	17804977.761194475	12069.351272831424
1.925000	17322611.427806418	11966.666682034447
1.931250	16845571.199113924	11881.368205969073
1.937500	16378546.779944986	8891.845825263048
1.943750	15922452.572419878	8657.1389752181676
1.950000	15471293.687679103	8452.5443097220959
1.956250	15025456.257531028	8623.2935903358139
1.962500	14585599.8435119	8175.3907499229681
1.968750	14151856.113299388	8123.3395906513879
1.975000	13724648.247961199	8140.5547676005854
1.981250	13304271.676149383	8232.6806462308796
1.987500	12890989.909985358	8402.0309328836884
1.993750	12485002.645837441	8647.3569362739527
2.000000	12086494.232622717	8964.0793984956908
2.006250	11699246.370389571	12054.535329620936
2.012500	11320791.324121486	11974.144052560152
2.018750	10949290.428645361	11903.091398825682
2.025000	10584890.620402548	11840.209944204602
2.031250	10227765.265404034	11784.286776732424
2.037500	9878017.5898232255	11734.057760473166
2.043750	9535724.4342558701	11688.227096629604
2.050000	9200973.4997435473	11645.482278939826
2.056250	8873775.2731301393	11604.492563574226
2.062500	8554165.1484976411	11563.9315262526
2.068750	8243576.5644869404	5165.1903150066601
2.075000	7943567.2719407873	4795.2729824725893
2.081250	7650312.5113552837	4726.9804944993102
2.087500	7364152.6341141146	4524.2328200518086
2.093750	7085013.9350741357	4332.7761882879786
2.100000	6812884.9535088036	4152.8163399722098
2.106250	6547809.4479339896	4096.0045485111523
2.112500	6289569.5920193736	3827.8712346870839
2.118750	6038309.1742532793	3682.9115568631873
2.125000	5793920.3671398442	3549.4816128045386
2.131250	5556322.8591366997	3427.3219040311292
2.137500	5327953.8332242686	4951.9903012399755
2.143750	5107127.2585693523	4700.3517860793909
2.150000	4892521.5213024896	4460.2927043609207
2.156250	4684166.1377952415	4215.689504859437
2.162500	4481910.0542129595	4019.8714064917453
2.168750	4285820.8009481514	3821.7878609764748
2.175000	4095832.6555051068	3639.8200799833735
2.181250	3911880.7745501152	3474.7640047066934
2.187500	3733922.8710831022	3327.2140362689975
2.193750	3561889.0603694045	3197.4592283901657
2.200000	3395704.1801878037	3085.4530968226109
2.206250	3239971.7646654993	1964.9494947877961
2.212500	3088214.5961493673	1850.2864519279599
2.218750	2941844.4062394639	1767.7618553833538
2.225000	2800809.0655355528	1752.1175264278154
2.231250	2665220.3039100906	1673.7832876590626
2.237500	2534924.8774521444	1658.8074524032779
2.243750	2409933.2645911891	1660.3525849643954
2.250000	2290223.3804635503	1674.6164413608292
2.256250	2175753.9820817946	1698.0281833973813
2.262500	2066479.170970107	1727.4467364205207
2.268750	1961488.8524193403	2064.0441101482684
2.275000	1865627.6620022934	1779.9240102411811
2.281250	1774507.5116992686	1559.8385469974489
2.287500	1688125.7257119766	1404.1119170412132
2.293750	1606476.0913097456	1307.8535012062171
2.300000	1529556.6623094077	1260.041876750751
2.306250	1457347.6542929434	1245.6018919755245
2.312500	1389834.1778084082	1249.2644515376649
2.318750	1326986.0373789887	1258.5388108129737
2.325000	1268736.9568740714	1189.2398223139819
2.331250	1215135.9590320014	1263.2723643384961
2.337500	1168629.3583897837	2275.3904941439378
2.343750	1126463.0667261488	2166.3366668969502
2.350000	1088566.4970985339	2063.195103564487
2.356250	1054862.8899614217	1910.8350108150992
2.362500	1025495.596654244	1860.0434329715158
2.368750	1000268.0419523341	1767.404231326889
2.375000	979192.85871852224	1682.5768677587466
2.381250	962216.72116268706	1608.6312212553216
2.387500	949204.04219748825	1476.77880511786
2.393750	940300.25883221871	1509.3563339503185
2.400000	935202.46543560061	1492.891902789358
2.406250	936103.57137853024	1102.020033908092
2.412500	940975.17625876958	1093.2638047549297
2.418750	949380.67195800855	1114.8783726461563
2.425000	961171.87361042446	1336.2332788296496
2.431250	976503.44747937587	1238.9903758628686
2.437500	995050.30778902804	1332.8466805019636
2.443750	1016789.5943361776	1441.8326023337474
2.450000	1041610.0335740342	1562.0926443942847
2.456250	1069386.1373178272	1690.5210039635685
2.462500	1099985.0817531296	1824.7273431841543
2.468750	1132517.7864117795	1740.555007740068
2.475000	1171245.6513191687	1706.3570939603692
2.481250	1212435.4423151815	1683.4592413804785
2.487500	1255959.6495846664	1671.0493952958991
2.493750	1301688.2833649623	1668.1991725020603
2.500000	1349475.4743648751	1673.9455472520133
2.506250	1399171.4407016286	1687.3597429916404
2.512500	1450617.6677129529	1707.6040861501697
2.518750	1503640.6961930257	1733.9640117389838
2.525000	1558066.2369704426	1765.8699428192799
2.531250	1613703.241638202	1802.8878202425376
2.537500	1673427.4092808985	1572.9972282059387
2.543750	1734980.9462814699	1519.647732121419
2.550000	1797368.5242682223	1463.8905620583787
