#List of files for average calculation
#C:\Lea\runGPU\2\3Shells_cylinder_GPU_MC\3Shells_cylinder_GPU_MC_1
#C:\Lea\runGPU\2\3Shells_cylinder_GPU_MC\3Shells_cylinder_GPU_MC_2
#C:\Lea\runGPU\2\3Shells_cylinder_GPU_MC\3Shells_cylinder_GPU_MC_3
#C:\Lea\runGPU\2\3Shells_cylinder_GPU_MC\3Shells_cylinder_GPU_MC_4
#C:\Lea\runGPU\2\3Shells_cylinder_GPU_MC\3Shells_cylinder_GPU_MC_5
#C:\Lea\runGPU\2\3Shells_cylinder_GPU_MC\3Shells_cylinder_GPU_MC_6
#C:\Lea\runGPU\2\3Shells_cylinder_GPU_MC\3Shells_cylinder_GPU_MC_7
#C:\Lea\runGPU\2\3Shells_cylinder_GPU_MC\3Shells_cylinder_GPU_MC_8
#C:\Lea\runGPU\2\3Shells_cylinder_GPU_MC\3Shells_cylinder_GPU_MC_9
#C:\Lea\runGPU\2\3Shells_cylinder_GPU_MC\3Shells_cylinder_GPU_MC_10
#Average Chi square (Sigma units): 1.2032512998603
#Sigma Chi square: 0.20520044824777
#Calculation was done on GPU
q [nm^-1]	Intensity [A.U]	Sigma [A.U]
0.000000	3574187420.4544611	5.0263049764130585e-007
0.006250	3574701926.693718	2061.6366314854067
0.012500	3573688170.3596678	3250.0541202115505
0.018750	3571155719.1225677	3798.6703844948365
0.025000	3567115164.2428298	4595.6521044809188
0.031250	3561578126.7188606	7060.6458937248863
0.037500	3554557267.3043642	11772.068486525171
0.043750	3546066300.3950958	18690.511289577091
0.050000	3536120011.7850661	27821.895096880235
0.056250	3524734280.2922106	39254.111536260905
0.062500	3511926103.2535195	53111.056416588879
0.068750	3498568717.7727661	51280.036642727719
0.075000	3485464096.6547217	64365.794318048152
0.081250	3470941563.8401132	79300.419620997447
0.087500	3455025092.4165893	95941.486805349559
0.093750	3437739472.9684219	114142.68433634937
0.100000	3419110243.5769858	133756.23363634376
0.106250	3399163623.3427072	154634.04090573938
0.112500	3377926449.4284372	176628.31449887558
0.118750	3355426117.624301	199591.96425913979
0.125000	3331690526.4339743	223378.91505054245
0.131250	3306748024.6824217	247844.38869478021
0.137500	3282066592.721159	120465.34362491434
0.143750	3256919444.5887375	130708.69653740672
0.150000	3230574156.5603037	141241.24360245123
0.156250	3203074092.5760598	152049.48918923651
0.162500	3174462969.8715758	163119.66652797177
0.168750	3144784801.5964303	174437.72015770109
0.175000	3114083840.748271	185989.32692439281
0.181250	3082404525.4223213	197759.93934136248
0.187500	3049791425.376317	209734.84104383242
0.193750	3016289189.9108806	221899.20782165369
0.200000	2981942497.0653315	234238.17007566578
0.206250	2948588674.5679121	426425.44598477974
0.212500	2914362382.7927198	447560.26416381047
0.218750	2879299605.8300619	468907.56079406978
0.225000	2843452428.4328265	490398.6204294741
0.231250	2806872611.8673501	511965.87174704135
0.237500	2769611528.5085335	533543.00901848543
0.243750	2731720098.7708273	555065.1088126197
0.250000	2693248730.3750658	576468.74166786799
0.256250	2654247259.9511614	597692.07853419345
0.262500	2614764896.9766474	618674.99187847343
0.268750	2575377123.4224172	416772.47318337491
0.275000	2536377889.567585	429664.63147203479
0.281250	2496896966.4065042	442386.70773349178
0.287500	2456988201.3224015	454900.83493818389
0.293750	2416704531.1832466	467170.55066807597
0.300000	2376097921.8539977	479160.85819871887
0.306250	2335219310.8797302	490838.28366992006
0.312500	2294118553.3396897	502170.92910382635
0.318750	2252844370.8722296	513128.52109786047
0.325000	2211444303.8706708	523682.45505664585
0.331250	2169964666.8500381	533805.83485944604
0.337500	2129200062.8834395	479837.50385305536
0.343750	2088494392.8239074	488237.13561839738
0.350000	2047702550.2012544	496278.75244740327
0.356250	2006872491.214962	503939.66888216243
0.362500	1966050761.8871293	511198.80071269459
0.368750	1925282455.81991	518036.6917953745
0.375000	1884611175.568969	524435.53673543164
0.381250	1844078997.6329353	530379.19933276426
0.387500	1803726441.0588837	535853.22667738656
0.393750	1763592439.6638141	540844.85882507416
0.400000	1723714317.8721466	545343.03400607174
0.406250	1684589910.3452122	644129.63658421068
0.412500	1645699864.5652642	649103.11613860435
0.418750	1607050415.8538969	653527.5861675971
0.425000	1568678219.2646031	657394.00647714338
0.431250	1530618276.4700255	660694.99744289368
0.437500	1492903916.9985681	663424.83639961341
0.443750	1455566783.05265	665579.45032722701
0.450000	1418636817.9086287	667156.40482155909
0.456250	1382142257.8983688	668154.88929502782
0.462500	1346109627.9724658	668575.69839571882
0.468750	1310283902.1185868	387687.56180112838
0.475000	1275405680.5805662	387156.82328384282
0.481250	1240965294.3342986	386305.01388704986
0.487500	1206987198.3297625	385133.76811083237
0.493750	1173494235.6119001	383645.6323795655
0.500000	1140507637.7090578	381844.04693125549
0.506250	1108047028.1335244	379733.32557352207
0.512500	1076130428.9941878	377318.63328222715
0.518750	1044774270.7212937	374605.96159862221
0.525000	1013993404.9033177	371602.10181678145
0.531250	983801120.23594189	368314.61594250781
0.537500	954431530.5030638	488339.2059950062
0.543750	925394875.92798305	484316.41531685018
0.550000	896915017.9704392	479935.69001173921
0.556250	869002801.57834721	475207.29310785112
0.562500	841667728.50827289	470142.19062357408
0.568750	814917974.12768865	464752.02316363994
0.575000	788760406.56943774	459049.07592280913
0.581250	763200608.23840177	453046.24708569481
0.587500	738242899.67038	446757.01461415493
0.593750	713890365.74317193	440195.40142344788
0.600000	690144884.23986912	433375.93894373818
0.606250	666967350.59988415	326789.79418239783
0.612500	644285940.6469276	321932.52028442099
0.618750	622175565.08314908	316897.89455391531
0.625000	600636106.01115739	311695.24954647158
0.631250	579666524.5226562	306334.15658852842
0.637500	559264884.50898504	300824.40561523498
0.643750	539428377.9875859	295175.98429105384
0.650000	520153351.94438612	289399.0564082592
0.656250	501435336.69210196	283503.93957159895
0.662500	483269075.74446422	277501.08217203198
0.668750	465686122.4040097	235559.52493156304
0.675000	448461862.7416147	229591.04519064614
0.681250	431753309.34680492	223587.12641035547
0.687500	415553836.23334098	217559.43692469833
0.693750	399856333.98835248	211519.41265771742
0.700000	384653230.3291043	205478.2351346197
0.706250	369936511.46807992	199446.80874285608
0.712500	355697744.28636914	193435.73721607262
0.718750	341928099.31536657	187455.29932795183
0.725000	328618374.52678114	181515.42379352762
0.731250	315759019.93095148	175625.66339777358
0.737500	303223071.71927798	172258.8167353546
0.743750	291120564.28350914	165545.75588686991
0.750000	279434757.86409956	158906.68529373952
0.756250	268155733.13994756	152352.40451318072
0.762500	257273485.05705491	145893.2777068729
0.768750	246777934.48981494	139539.22896511323
0.775000	236658940.27152777	133299.73709930942
0.781250	226906311.59414157	127183.8297356744
0.787500	217509820.77722412	121200.07650039195
0.793750	208459216.40616137	115356.58104350259
0.800000	199744236.83958319	109660.97159840482
0.806250	191254158.13416162	47617.377567708834
0.812500	183114698.17646843	46309.416615907168
0.818750	175282007.19341183	45068.127062423213
0.825000	167746256.61977476	43890.061550137565
0.831250	160497797.04506439	42771.384332423222
0.837500	153527157.83086389	41707.933899880751
0.843750	146825046.97017553	40695.290335105601
0.850000	140382351.18876359	39728.845560569454
0.856250	134190136.28848934	38803.874514693278
0.862500	128239647.73264308	37915.605300572213
0.868750	122508403.25470999	37785.755596577823
0.875000	116992745.46984228	35643.65634410442
0.881250	111695450.4197599	33648.525202956618
0.887500	106608514.86559196	31801.308886241284
0.893750	101724237.31224874	30102.081324445346
0.900000	97035206.224108487	28549.882871260565
0.906250	92534288.61511077	27142.55541678083
0.912500	88214619.01325798	25876.591272197878
0.918750	84069588.799523175	24747.018278503612
0.925000	80092835.921165794	23747.345200025258
0.931250	76278234.979454502	22869.588428348641
0.937500	72622795.541142553	31064.376930003084
0.943750	69118893.066627607	29167.708187521068
0.950000	65759840.26700791	27477.554263136022
0.956250	62540386.115054272	25991.781044716638
0.962500	59455569.203158461	24705.571847900523
0.968750	56500698.752773546	23611.036135495946
0.975000	53671336.271410525	22697.023853553197
0.981250	50963277.857189938	21949.228503116548
0.987500	48372537.15094924	21350.611184944901
0.993750	45895328.935905971	20882.107697548039
1.000000	43528053.384876132	20523.516680696441
1.006250	41301411.973535419	10999.298790841243
1.012500	39163495.631015435	10437.599192637706
1.018750	37122947.183998607	9975.5364519256909
1.025000	35176889.118165024	9605.5878449063657
1.031250	33322639.930160474	9318.1238664331304
1.037500	31557693.176124841	9101.8717286674855
1.043750	29879697.445045691	8944.5727087244541
1.050000	28286437.256938566	8833.7065052634498
1.056250	26775814.885854039	8757.1549500584279
1.062500	25345833.107710145	8703.716814710986
1.068750	23994384.303745318	13347.958712927737
1.075000	22745550.188654449	13057.660479403045
1.081250	21568093.965734817	12739.798486816386
1.087500	20460443.920258019	12395.833880151087
1.093750	19421127.864953268	12027.443915054582
1.100000	18448753.880856592	11636.479254438187
1.106250	17541992.151610285	11224.930434921975
1.112500	16699557.891212787	10794.902800172616
1.118750	15920195.36521945	10348.599554997279
1.125000	15202663.005393278	9888.3129827550547
1.131250	14545719.617806699	9416.4243186524345
1.137500	13969262.831070676	8193.5223720976355
1.143750	13454622.872926125	7897.9240788686875
1.150000	12993489.263891734	7555.6354286656142
1.156250	12584807.391320877	7169.5572115653131
1.162500	12227526.805580821	6742.9192537291947
1.168750	11920587.552566234	6279.3113148069979
1.175000	11662907.607085833	5782.7743778344129
1.181250	11453371.40712215	5257.9902963038967
1.187500	11290819.488964418	4710.6484803381691
1.193750	11174039.223214563	4148.1563689184804
1.200000	11101756.651666321	3581.0592991849471
1.206250	11101030.692336319	3706.2492698852907
1.212500	11139876.91917168	3426.7432622310457
1.218750	11217414.35855471	3228.8544831143026
1.225000	11332426.246051572	3130.9612562726506
1.231250	11483653.61950879	3143.7929873946687
1.237500	11669787.888005281	3266.0416756841378
1.243750	11889464.356902106	3485.0700464245165
1.250000	12141256.708990345	3782.0977768011994
1.256250	12423672.44173681	4137.7507730473235
1.262500	12735149.260627795	4535.2493515396191
1.268750	13091289.69195465	6542.9561966270658
1.275000	13489526.385201897	7037.047711024944
1.281250	13911675.904958937	7558.374216870835
1.287500	14356203.457262328	8102.5362911549064
1.293750	14821538.770122975	8665.6090466572823
1.300000	15306072.833675664	9244.0845514203993
1.306250	15808155.356775561	9834.8098473242353
1.312500	16326092.940041717	10434.928943763311
1.318750	16858147.965347361	11041.832186876238
1.325000	17402538.201757114	11653.113790518479
1.331250	17957437.127911314	12266.537082244193
1.337500	18549187.969077401	10335.629316173947
1.343750	19161644.827149637	10840.081039168126
1.350000	19780126.890258938	11342.449247881739
1.356250	20402938.897948802	11841.125347404117
1.362500	21028382.126370978	12334.63970142779
1.368750	21654753.867966898	12821.640079186554
1.375000	22280347.372664545	13300.874816393629
1.381250	22903452.25059016	13771.179700680972
1.387500	23522355.336295389	14231.467802271605
1.393750	24135342.014499601	14680.721638964738
1.400000	24740698.00734701	15117.987198592831
1.406250	25380706.261536397	21777.469713009694
1.412500	26017149.682402514	22216.752631775558
1.418750	26642338.581076961	22641.220173111808
1.425000	27254826.379394412	23050.999231104011
1.431250	27853203.227610122	23446.225789933105
1.437500	28436095.804305185	23827.042924511516
1.443750	29002167.376431573	24193.599328340213
1.450000	29550118.11949756	24546.048295360059
1.456250	30078685.697893102	24884.547091239467
1.462500	30586646.105355226	25209.256654166536
1.468750	31083532.768934406	38716.110389113775
1.475000	31603581.507157225	39243.31178831459
1.481250	32100144.232203275	39742.050180423692
1.487500	32572338.413403653	40212.618397047052
1.493750	33019346.354028247	40655.325733519181
1.500000	33440413.549622037	41070.497083678245
1.506250	33834847.195988335	41458.472051043333
1.512500	34202014.846819982	41819.604025426124
1.518750	34541343.220977418	42154.25921436456
1.525000	34852317.159414336	42462.81561973496
1.531250	35134478.731750913	42745.661948818968
1.537500	35429975.738779277	27746.092383780822
1.543750	35711213.424292825	27996.689696367015
1.550000	35961819.938328758	28222.284961670073
1.556250	36181714.107730761	28422.836008827289
1.562500	36370882.994232491	28598.367221648401
1.568750	36529378.537907295	28748.967074519551
1.575000	36657314.330774799	28874.785520750986
1.581250	36754862.520564497	28976.031249796011
1.587500	36822250.844636358	29052.96882896098
1.593750	36859759.794058427	29105.915743710855
1.600000	36867719.907841399	29135.239349808096
1.606250	36908765.726558805	35788.985854435901
1.612500	36911205.134611703	35745.513656594325
1.618750	36883225.845632218	35672.32322721721
1.625000	36825487.953869626	35570.311130810092
1.631250	36738699.562323913	35440.409618957157
1.637500	36623612.223764673	35283.58238787044
1.643750	36481016.553436831	35100.820467310099
1.650000	36311738.013452321	34893.138243700494
1.656250	36116632.868869171	34661.569620997812
1.662500	35896584.315456524	34407.164322040269
1.668750	35679375.152550772	26189.813438066965
1.675000	35457237.900969014	26033.477259772324
1.681250	35209721.451412126	25861.925437529724
1.687500	34937940.828730978	25675.852641395402
1.693750	34643030.318030611	25475.950070187864
1.700000	34326138.550705947	25262.903841563169
1.706250	33988423.821523748	25037.393537991007
1.712500	33631049.636751465	24800.090911146206
1.718750	33255180.493332915	24551.658744533896
1.725000	32861977.889110588	24292.749875172201
1.731250	32452596.564094692	24024.006370684034
1.737500	32033705.531325877	18184.286012245848
1.743750	31628612.16585239	17955.306591452962
1.750000	31207277.10088855	17718.136656699815
1.756250	30770973.767407119	17473.283920064609
1.762500	30320960.470596623	17221.249648626079
1.768750	29858476.371397875	16962.528160843191
1.775000	29384737.738454938	16697.606497796638
1.781250	28900934.470479749	16426.964258574528
1.787500	28408226.889031388	16151.073585937242
1.793750	27907742.801709197	15870.39928778498
1.800000	27400574.83575996	15585.399077447151
1.806250	26921985.262839876	28053.154741610757
1.812500	26425808.617560662	27623.584730664301
1.818750	25922912.579516601	27183.652412486681
1.825000	25414417.996306971	26734.073085076743
1.831250	24901406.648083437	26275.558538031677
1.837500	24384918.773947276	25808.816967805797
1.843750	23865950.86751714	25334.552900986546
1.850000	23345453.741668046	24853.467112398037
1.856250	22824330.862440921	24366.256525149456
1.862500	22303436.952123243	23873.614080379444
1.868750	21787184.928014986	21913.515277557508
1.875000	21284074.887922212	21422.667332069304
1.881250	20780978.102160435	20929.479197071967
1.887500	20278726.830133464	20434.509763973452
1.893750	19778107.060549457	19938.308022634672
1.900000	19279857.393652078	19441.413341987332
1.906250	18784668.151439779	18944.355727104441
1.912500	18293180.71587326	18447.656042824372
1.918750	17805987.095071197	17951.826193836903
1.925000	17323629.717493903	17457.369251736476
1.931250	16846601.454115476	16964.779519664036
1.937500	16380924.067673717	17421.87013436003
1.943750	15924451.288366798	16924.367858009035
1.950000	15472909.034541911	16425.332100593459
1.956250	15026761.557140118	15925.459769978894
1.962500	14586431.194549179	15425.453419519587
1.968750	14152298.43685993	14926.019943034362
1.975000	13724702.154319534	14427.869153014024
1.981250	13303939.989981355	13931.712238084487
1.987500	12890268.916551534	13438.260095540312
1.993750	12483905.957432341	12948.221534943652
2.000000	12085029.071962209	12462.301348110237
2.006250	11696555.942154218	8352.6170415298093
2.012500	11318212.407504663	8072.9664776291793
2.018750	10946814.69627065	7796.9352041916409
2.025000	10582537.448627872	7524.8528588744603
2.031250	10225526.12788404	7257.0325017151263
2.037500	9875897.5770057086	6993.7695826136469
2.043750	9533740.6754484996	6735.3408282860428
2.050000	9199117.0962904505	6482.0030493777804
2.056250	8872062.1636684798	6233.991871482046
2.062500	8552585.8105182983	5991.5203975400509
2.068750	8243926.8963166643	4380.5278335117437
2.075000	7943753.8427722547	4237.3559240959403
2.081250	7650545.9488315005	4097.4152684509563
2.087500	7364334.2447044719	3960.7578574571817
2.093750	7085133.839877164	3827.417409848701
2.100000	6812944.3004892915	3697.4092351014192
2.106250	6547750.0821849788	3570.7302558216961
2.112500	6289521.0184360426	3447.3592057374017
2.118750	6038212.8643378913	3327.2570178481978
2.125000	5793767.8958782889	3210.3674147270517
2.131250	5556115.564678587	3096.6177095886746
2.137500	5328279.6254430627	2601.5566478631208
2.143750	5107461.6475138245	2516.4505772085558
2.150000	4892869.8789378563	2441.3949184366538
2.156250	4684480.1427501822	2375.8563528302311
2.162500	4482261.872236168	2319.1577805870002
2.168750	4286178.0527384067	2270.4960957760732
2.175000	4096185.2010095762	2228.966837289453
2.181250	3912233.3821110972	2193.5935419307184
2.187500	3734266.2638578578	2163.3591393026441
2.193750	3562221.208808688	2137.2367304283698
2.200000	3396029.4038028405	2114.2175202388589
2.206250	3238449.4384660264	1998.908236142076
2.212500	3086807.001670605	1935.936582427501
2.218750	2940550.800090557	1879.7716951930288
2.225000	2799665.264208938	1829.5263860766026
2.231250	2664131.5927936547	1784.2895525268336
2.237500	2533927.244124243	1743.1514689113928
2.243750	2409025.4699591636	1705.2270479146466
2.250000	2289394.8922438053	1669.6756915926833
2.256250	2174999.1225589882	1635.7169337741898
2.262500	2065796.4243101352	1602.6416427691865
2.268750	1962873.8999064644	1962.8372892543964
2.275000	1866743.7050007773	1917.87029736473
2.281250	1775383.3511065324	1872.3482563271536
2.287500	1688793.6299530868	1826.0698209657091
2.293750	1606971.0310140464	1778.8798893998337
2.300000	1529906.9563168031	1730.6670214089436
2.306250	1457586.9946755269	1681.3607744245705
2.312500	1389990.2553476705	1630.9291060334215
2.318750	1327088.7611138939	1579.3759689016947
2.325000	1268846.9007814717	1526.7392068582146
2.331250	1215220.9411111786	1473.0888499123796
2.337500	1167827.4111944546	1243.5621269434555
2.343750	1125716.2305640574	1186.9034898261903
2.350000	1087861.073840145	1129.1331482424368
2.356250	1054245.4838349733	1070.5373693721417
2.362500	1024845.0846321402	1011.4460141031034
2.368750	999626.87360534444	952.24146044740269
2.375000	978548.58778841794	893.3713553394474
2.381250	961558.14459660032	835.36609394899756
2.387500	948593.1568990706	778.86179254477065
2.393750	939580.52244272991	724.62877970929276
2.400000	934436.08762724721	673.60353531523504
2.406250	935923.91879360308	634.51670354579039
2.412500	940745.99658077362	594.80644421653903
2.418750	949098.07700644457	558.52642969697854
2.425000	960910.73270752595	526.79735764851
2.431250	976104.40702378133	500.84029868875848
2.437500	994589.01308944041	481.87893662857556
2.443750	1016263.6112337332	470.9765662753851
2.450000	1041016.1646903232	468.83765854656167
2.456250	1068723.3736156565	475.64817168085773
2.462500	1099250.5874162228	491.03526616168028
2.468750	1132719.9619705833	612.95230732481184
2.475000	1171488.8850323893	639.31798763814379
2.481250	1212713.4571280545	668.57527903705125
2.487500	1256269.1794921863	700.35368930334243
2.493750	1302022.6396190464	734.30403956349733
2.500000	1349831.401679816	770.10597964651288
2.506250	1399543.9659414811	807.47081452663292
2.512500	1450999.797187258	846.14116278508016
2.518750	1504029.4221386204	885.88868763735684
2.525000	1558454.5958789149	926.51080447552306
2.531250	1614088.5372785209	967.82697125384004
2.537500	1674156.4478438136	983.41735369162541
2.543750	1735770.1010377095	1037.8324594933551
2.550000	1798238.517462376	1093.2008978506947
