#List of files for average calculation
#C:\D+_tests\Symmetry\GPU\WH\Space_Filling_Symmetry_Implicit_No_Charges_With_Hydration_Hybrid_Gauss_Kronrod_Amp\Space_Filling_Symmetry_Implicit_No_Charges_With_Hydration_Hybrid_Gauss_Kronrod_Amp_1
#C:\D+_tests\Symmetry\GPU\WH\Space_Filling_Symmetry_Implicit_No_Charges_With_Hydration_Hybrid_Gauss_Kronrod_Amp\Space_Filling_Symmetry_Implicit_No_Charges_With_Hydration_Hybrid_Gauss_Kronrod_Amp_2
#C:\D+_tests\Symmetry\GPU\WH\Space_Filling_Symmetry_Implicit_No_Charges_With_Hydration_Hybrid_Gauss_Kronrod_Amp\Space_Filling_Symmetry_Implicit_No_Charges_With_Hydration_Hybrid_Gauss_Kronrod_Amp_3
#C:\D+_tests\Symmetry\GPU\WH\Space_Filling_Symmetry_Implicit_No_Charges_With_Hydration_Hybrid_Gauss_Kronrod_Amp\Space_Filling_Symmetry_Implicit_No_Charges_With_Hydration_Hybrid_Gauss_Kronrod_Amp_4
#C:\D+_tests\Symmetry\GPU\WH\Space_Filling_Symmetry_Implicit_No_Charges_With_Hydration_Hybrid_Gauss_Kronrod_Amp\Space_Filling_Symmetry_Implicit_No_Charges_With_Hydration_Hybrid_Gauss_Kronrod_Amp_5
#C:\D+_tests\Symmetry\GPU\WH\Space_Filling_Symmetry_Implicit_No_Charges_With_Hydration_Hybrid_Gauss_Kronrod_Amp\Space_Filling_Symmetry_Implicit_No_Charges_With_Hydration_Hybrid_Gauss_Kronrod_Amp_6
#C:\D+_tests\Symmetry\GPU\WH\Space_Filling_Symmetry_Implicit_No_Charges_With_Hydration_Hybrid_Gauss_Kronrod_Amp\Space_Filling_Symmetry_Implicit_No_Charges_With_Hydration_Hybrid_Gauss_Kronrod_Amp_7
#C:\D+_tests\Symmetry\GPU\WH\Space_Filling_Symmetry_Implicit_No_Charges_With_Hydration_Hybrid_Gauss_Kronrod_Amp\Space_Filling_Symmetry_Implicit_No_Charges_With_Hydration_Hybrid_Gauss_Kronrod_Amp_8
#C:\D+_tests\Symmetry\GPU\WH\Space_Filling_Symmetry_Implicit_No_Charges_With_Hydration_Hybrid_Gauss_Kronrod_Amp\Space_Filling_Symmetry_Implicit_No_Charges_With_Hydration_Hybrid_Gauss_Kronrod_Amp_9
#C:\D+_tests\Symmetry\GPU\WH\Space_Filling_Symmetry_Implicit_No_Charges_With_Hydration_Hybrid_Gauss_Kronrod_Amp\Space_Filling_Symmetry_Implicit_No_Charges_With_Hydration_Hybrid_Gauss_Kronrod_Amp_10
#Average Chi square (Sigma units): 0.55730337078651
#Sigma Chi square: 0
#Calculation was done on GPU
q [nm^-1]	Intensity [A.U]	Sigma [A.U]
0.000000	62833252989.003906	0
0.006250	62893939115.76078	0
0.012500	62828194056.884926	0
0.018750	62641896166.69371	8.0420879622608936e-006
0.025000	62339089070.133286	1.6084175924521787e-005
0.031250	61922051794.833878	8.0420879622608936e-006
0.037500	61391502517.375107	1.6084175924521787e-005
0.043750	60746922845.205765	8.0420879622608936e-006
0.050000	59986984391.769669	0
0.056250	59110054965.667007	0
0.062500	58114758150.391769	8.0420879622608936e-006
0.068750	57079562103.086838	0
0.075000	56080483970.353317	8.0420879622608936e-006
0.081250	54968356853.520737	8.0420879622608936e-006
0.087500	53756351837.755714	8.0420879622608936e-006
0.093750	52457040662.343864	8.0420879622608936e-006
0.100000	51082124841.789604	8.0420879622608936e-006
0.106250	49642275506.718163	8.0420879622608936e-006
0.112500	48147072718.605659	8.0420879622608936e-006
0.118750	46605029579.021439	8.0420879622608936e-006
0.125000	45023683983.219772	8.0420879622608936e-006
0.131250	43409739410.800591	8.0420879622608936e-006
0.137500	41870015750.220024	8.0420879622608936e-006
0.143750	40348674474.615601	0
0.150000	38806128123.705025	8.0420879622608936e-006
0.156250	37254762817.547844	8.0420879622608936e-006
0.162500	35705253689.292953	8.0420879622608936e-006
0.168750	34166627829.123238	4.0210439811304468e-006
0.175000	32646382939.016441	0
0.181250	31150645559.723137	8.0420879622608936e-006
0.187500	29684353144.496773	8.0420879622608936e-006
0.193750	28251445323.334343	0
0.200000	26855051338.892387	4.0210439811304468e-006
0.206250	25578044244.767361	0
0.212500	24331422095.617367	0
0.218750	23117107490.440434	4.0210439811304468e-006
0.225000	21945058235.050816	4.0210439811304468e-006
0.231250	20814957383.337215	0
0.237500	19728562078.289364	4.0210439811304468e-006
0.243750	18686842875.369228	0
0.250000	17690125831.729984	0
0.256250	16738218008.047464	0
0.262500	15830513359.724369	0
0.268750	14978486249.111328	0
0.275000	14191735702.423634	2.0105219905652234e-006
0.281250	13438992475.300016	0
0.287500	12722663073.701994	0
0.293750	12042037620.104664	2.0105219905652234e-006
0.300000	11396182471.777512	0
0.306250	10784021439.201899	2.0105219905652234e-006
0.312500	10206107277.736326	2.0105219905652234e-006
0.318750	9657451830.3678608	0
0.325000	9137738649.2610168	0
0.331250	8645257985.626379	2.0105219905652234e-006
0.337500	8190651773.8391285	1.0052609952826117e-006
0.343750	7763951513.0840282	0
0.350000	7357380598.9892197	0
0.356250	6969869023.898613	0
0.362500	6600336772.2688284	0
0.368750	6247720450.100915	1.0052609952826117e-006
0.375000	5910989884.2241526	1.0052609952826117e-006
0.381250	5587870385.2813482	1.0052609952826117e-006
0.387500	5280433398.0041208	1.0052609952826117e-006
0.393750	4986028800.467309	0
0.400000	4703804024.5650644	0
0.406250	4443253580.0627518	0
0.412500	4192006261.1118522	0
0.418750	3949905904.8769522	1.0052609952826117e-006
0.425000	3716842655.7725573	5.0263049764130585e-007
0.431250	3492739953.8592949	0
0.437500	3277541217.7557759	0
0.443750	3071197652.3546824	0
0.450000	2873658240.4196324	5.0263049764130585e-007
0.456250	2684862440.4413977	5.0263049764130585e-007
0.462500	2504737004.6099477	5.0263049764130585e-007
0.468750	2335068250.6329041	0
0.475000	2176828975.8123927	5.0263049764130585e-007
0.481250	2025943726.0133357	2.5131524882065292e-007
0.487500	1882601402.4626861	2.5131524882065292e-007
0.493750	1746914346.2082543	2.5131524882065292e-007
0.500000	1618939018.8024313	0
0.506250	1498689554.959831	2.5131524882065292e-007
0.512500	1386081591.0470502	2.5131524882065292e-007
0.518750	1280986873.4801197	0
0.525000	1183249103.2825761	2.5131524882065292e-007
0.531250	1092649610.6908777	0
0.537500	1010334908.3063867	1.2565762441032646e-007
0.543750	934936475.18272281	0
0.550000	865491482.76884294	0
0.556250	801776545.39371383	0
0.562500	743523745.59240162	1.2565762441032646e-007
0.568750	690430660.16236579	1.2565762441032646e-007
0.575000	642170720.41301239	1.2565762441032646e-007
0.581250	598402973.53085423	0
0.587500	558780477.4675864	1.2565762441032646e-007
0.593750	522956795.9601053	6.2828812205163231e-008
0.600000	490590343.53868854	1.2565762441032646e-007
0.606250	462337460.82971752	1.2565762441032646e-007
0.612500	436676471.47803593	0
0.618750	413494001.99565524	6.2828812205163231e-008
0.625000	392314818.85821056	0
0.631250	372734584.12865502	0
0.637500	354845096.63304603	6.2828812205163231e-008
0.643750	338288806.97677094	6.2828812205163231e-008
0.650000	322889195.92809784	6.2828812205163231e-008
0.656250	308498932.32857758	0
0.662500	294994804.94391477	6.2828812205163231e-008
0.668750	282695614.78701347	6.2828812205163231e-008
0.675000	271353211.21842855	6.2828812205163231e-008
0.681250	260178133.74927217	0
0.687500	249314334.89976436	3.1414406102581615e-008
0.693750	238637711.96444625	6.2828812205163231e-008
0.700000	228127161.29233152	0
0.706250	217874776.97015649	0
0.712500	207812648.65634033	3.1414406102581615e-008
0.718750	198212244.53089759	0
0.725000	188970476.80691093	3.1414406102581615e-008
0.731250	180128087.66209412	0
0.737500	172088454.8666015	3.1414406102581615e-008
0.743750	164441880.80421785	0
0.750000	156998306.03180724	3.1414406102581615e-008
0.756250	149825558.44806331	3.1414406102581615e-008
0.762500	142990971.44531634	3.1414406102581615e-008
0.768750	136420628.14326069	0
0.775000	130449928.14819357	1.5707203051290808e-008
0.781250	124969413.10914567	3.1414406102581615e-008
0.787500	119992902.47204587	3.1414406102581615e-008
0.793750	115511535.0910289	1.5707203051290808e-008
0.800000	111498934.44544724	0
0.806250	108237741.35388193	0
0.812500	105314239.52491859	1.5707203051290808e-008
0.818750	102728925.74887644	0
0.825000	100476252.27939402	1.5707203051290808e-008
0.831250	98538004.360295191	1.5707203051290808e-008
0.837500	96883723.367205158	0
0.843750	95468218.626200631	1.5707203051290808e-008
0.850000	94240284.781473368	1.5707203051290808e-008
0.856250	93119842.09740819	1.5707203051290808e-008
0.862500	92034052.231410012	1.5707203051290808e-008
0.868750	90840121.869495496	0
0.875000	90033966.76951167	1.5707203051290808e-008
0.881250	89189668.850322261	0
0.887500	86394043.593644276	1.5707203051290808e-008
0.893750	87292957.643189773	1.5707203051290808e-008
0.900000	86187431.472091049	1.5707203051290808e-008
0.906250	84939452.807515845	0
0.912500	83485544.43510367	0
0.918750	81767601.8502253	1.5707203051290808e-008
0.925000	79969952.844470516	0
0.931250	77875452.147779554	1.5707203051290808e-008
0.937500	75762154.353259325	0
0.943750	73573910.869439974	0
0.950000	71242604.481452465	0
0.956250	68797671.200851873	1.5707203051290808e-008
0.962500	66265356.580447778	0
0.968750	63670973.207556739	7.8536015256454039e-009
0.975000	61039204.923544392	0
0.981250	58424063.205228329	0
0.987500	55796692.182745799	0
0.993750	53216148.93882852	7.8536015256454039e-009
1.000000	50684404.729230896	7.8536015256454039e-009
1.006250	48387661.205016442	0
1.012500	46198703.112320438	7.8536015256454039e-009
1.018750	44146778.407930203	0
1.025000	42254244.35860949	7.8536015256454039e-009
1.031250	40537282.678445689	0
1.037500	38989307.028064653	7.8536015256454039e-009
1.043750	37658407.16942703	7.8536015256454039e-009
1.050000	36522712.46687229	7.8536015256454039e-009
1.056250	35580583.38331221	7.8536015256454039e-009
1.062500	34825421.974363931	0
1.068750	34263461.835719839	7.8536015256454039e-009
1.075000	33894952.948371716	7.8536015256454039e-009
1.081250	33675977.958650701	7.8536015256454039e-009
1.087500	33592155.826659143	0
1.093750	33612414.265092	7.8536015256454039e-009
1.100000	33745409.212439999	7.8536015256454039e-009
1.106250	33956943.015582442	0
1.112500	34226324.273229122	0
1.118750	34529179.569236092	7.8536015256454039e-009
1.125000	34655895.920703426	7.8536015256454039e-009
1.131250	35135915.890194967	7.8536015256454039e-009
1.137500	35449269.568166964	7.8536015256454039e-009
1.143750	35728255.365900107	7.8536015256454039e-009
1.150000	35938380.396555789	0
1.156250	36063618.174370423	7.8536015256454039e-009
1.162500	36101084.402427927	7.8536015256454039e-009
1.168750	36038609.005309038	7.8536015256454039e-009
1.175000	35869720.260980777	0
1.181250	35590149.462443657	7.8536015256454039e-009
1.187500	35201675.410413198	7.8536015256454039e-009
1.193750	34685731.62159311	0
1.200000	34061819.997637041	7.8536015256454039e-009
1.206250	33407091.341238298	0
1.212500	32639294.872191198	7.8536015256454039e-009
1.218750	31779374.833384521	7.8536015256454039e-009
1.225000	30815056.029085957	3.9268007628227019e-009
1.231250	29789734.802130498	3.9268007628227019e-009
1.237500	28708652.141577877	3.9268007628227019e-009
1.243750	27595162.547205053	3.9268007628227019e-009
1.250000	26448514.972682707	3.9268007628227019e-009
1.256250	25289215.80638849	3.9268007628227019e-009
1.262500	24132255.618495021	3.9268007628227019e-009
1.268750	23000265.465942677	0
1.275000	21905546.050770376	0
1.281250	20838010.596808072	0
1.287500	19812003.103156861	3.9268007628227019e-009
1.293750	18838419.725984145	3.9268007628227019e-009
1.300000	17926548.199161779	3.9268007628227019e-009
1.306250	17072865.757393032	0
1.312500	16304568.155854922	1.963400381411351e-009
1.318750	15613272.640941594	3.9268007628227019e-009
1.325000	15008100.32875352	1.963400381411351e-009
1.331250	14472434.474423986	1.963400381411351e-009
1.337500	14016462.813247416	3.9268007628227019e-009
1.343750	13631698.876432031	0
1.350000	13360700.605929567	1.963400381411351e-009
1.356250	13054101.268558206	1.963400381411351e-009
1.362500	12846376.026982797	1.963400381411351e-009
1.368750	12691413.193949606	1.963400381411351e-009
1.375000	12579554.50207852	1.963400381411351e-009
1.381250	12501933.625948057	0
1.387500	12450897.191547288	0
1.393750	12426756.596285759	1.963400381411351e-009
1.400000	12412257.691182641	0
1.406250	12440242.415334279	1.963400381411351e-009
1.412500	12461775.789230417	1.963400381411351e-009
1.418750	12470989.375524551	0
1.425000	12463667.025754349	1.963400381411351e-009
1.431250	12436473.29595715	1.963400381411351e-009
1.437500	12389774.620031117	0
1.443750	12320345.025739476	0
1.450000	12235146.70749351	1.963400381411351e-009
1.456250	12129770.345668955	1.963400381411351e-009
1.462500	12001620.030216422	1.963400381411351e-009
1.468750	11877228.37896979	1.963400381411351e-009
1.475000	11768922.329612209	0
1.481250	11628008.04175264	1.963400381411351e-009
1.487500	11455631.810521718	1.963400381411351e-009
1.493750	11261216.443359191	1.963400381411351e-009
1.500000	11051054.838807458	1.963400381411351e-009
1.506250	10832501.651108097	1.963400381411351e-009
1.512500	10610841.56755225	1.963400381411351e-009
1.518750	10392341.639723916	1.963400381411351e-009
1.525000	10181100.012293385	1.963400381411351e-009
1.531250	9978847.1814881153	1.963400381411351e-009
1.537500	9828210.2666027248	0
1.543750	9696289.0459144227	1.963400381411351e-009
1.550000	9565569.970675556	0
1.556250	9435660.140274914	0
1.562500	9332963.387076376	0
1.568750	9243388.9305371642	0
1.575000	9173901.4653077982	1.963400381411351e-009
1.581250	9127876.0682567619	1.963400381411351e-009
1.587500	9105564.0918232333	0
1.593750	9105265.2278986555	0
1.600000	9123717.1238956098	1.963400381411351e-009
1.606250	9209219.9856874235	1.963400381411351e-009
1.612500	9303144.7544887792	0
1.618750	9407093.1116551924	0
1.625000	9522578.7086391002	0
1.631250	9647746.3442988414	0
1.637500	9782192.1368896421	1.963400381411351e-009
1.643750	9925100.6020380836	1.963400381411351e-009
1.650000	10070654.209240537	1.963400381411351e-009
1.656250	10216491.653087972	1.963400381411351e-009
1.662500	10358478.011756601	0
1.668750	10507267.664250854	1.963400381411351e-009
1.675000	10675103.851828245	1.963400381411351e-009
1.681250	10832009.815574998	1.963400381411351e-009
1.687500	10978133.081195222	1.963400381411351e-009
1.693750	11113270.81970026	1.963400381411351e-009
1.700000	11236959.324415268	0
1.706250	11348462.068342196	0
1.712500	11448105.266059412	0
1.718750	11533304.788368279	1.963400381411351e-009
1.725000	11603364.412731068	0
1.731250	11657545.71949348	0
1.737500	11721107.245713428	0
1.743750	11785696.941829098	1.963400381411351e-009
1.750000	11839890.128102122	0
1.756250	11883221.250475613	1.963400381411351e-009
1.762500	11916943.570149567	1.963400381411351e-009
1.768750	11942077.995735463	1.963400381411351e-009
1.775000	11959416.124609068	0
1.781250	11969652.885714518	0
1.787500	11973518.335899396	1.963400381411351e-009
1.793750	11970870.723707067	1.963400381411351e-009
1.800000	11962225.058411147	1.963400381411351e-009
1.806250	11985895.062687013	1.963400381411351e-009
1.812500	12006252.578262072	1.963400381411351e-009
1.818750	12024873.004736753	0
1.825000	12042434.615207316	0
1.831250	12060092.013852848	0
1.837500	12078061.258866606	1.963400381411351e-009
1.843750	12096558.68060475	1.963400381411351e-009
1.850000	12117055.316638693	0
1.856250	12136063.826791709	1.963400381411351e-009
1.862500	12154419.731145168	1.963400381411351e-009
1.868750	12184594.821262524	0
1.875000	12240453.803628022	1.963400381411351e-009
1.881250	12295822.932530912	1.963400381411351e-009
1.887500	12350994.332573252	0
1.893750	12406206.224860668	0
1.900000	12460479.910168976	0
1.906250	12515515.440651802	1.963400381411351e-009
1.912500	12568863.005136132	0
1.918750	12625067.011723215	1.963400381411351e-009
1.925000	12673854.539395142	1.963400381411351e-009
1.931250	12719167.654384946	1.963400381411351e-009
1.937500	12787443.204456078	1.963400381411351e-009
1.943750	12865274.331857249	0
1.950000	12937935.518819127	1.963400381411351e-009
1.956250	13003518.459213225	1.963400381411351e-009
1.962500	13069939.968429727	1.963400381411351e-009
1.968750	13133027.310896145	0
1.975000	13192733.023444291	1.963400381411351e-009
1.981250	13248708.577633616	1.963400381411351e-009
1.987500	13300274.835983962	0
1.993750	13346437.257611675	0
2.000000	13385872.880669637	0
2.006250	13469284.244392779	1.963400381411351e-009
2.012500	13546570.921492275	1.963400381411351e-009
2.018750	13618710.734962162	3.9268007628227019e-009
2.025000	13686383.527318027	3.9268007628227019e-009
2.031250	13749873.294881042	1.963400381411351e-009
2.037500	13813826.411912028	3.9268007628227019e-009
2.043750	13870548.898819823	1.963400381411351e-009
2.050000	13920617.912761834	3.9268007628227019e-009
2.056250	13963338.121805053	1.963400381411351e-009
2.062500	13996648.243320312	3.9268007628227019e-009
2.068750	14038215.591730271	0
2.075000	14106011.470269796	3.9268007628227019e-009
2.081250	14163650.433434743	1.963400381411351e-009
2.087500	14211507.602330539	0
2.093750	14249194.976761017	3.9268007628227019e-009
2.100000	14279125.255722538	0
2.106250	14297644.495670173	1.963400381411351e-009
2.112500	14304935.49531604	1.963400381411351e-009
2.118750	14301109.325302456	1.963400381411351e-009
2.125000	14283682.291503701	0
2.131250	14250271.763650049	0
2.137500	14239340.496765386	1.963400381411351e-009
2.143750	14232229.600686494	1.963400381411351e-009
2.150000	14208446.25630277	1.963400381411351e-009
2.156250	14169247.297731217	1.963400381411351e-009
2.162500	14114017.089737881	1.963400381411351e-009
2.168750	14045733.875079419	1.963400381411351e-009
2.175000	13963028.388859164	0
2.181250	13865139.17472953	1.963400381411351e-009
2.187500	13751487.73057355	0
2.193750	13624522.029958162	1.963400381411351e-009
2.200000	13479421.325287167	1.963400381411351e-009
2.206250	13376660.027596116	0
2.212500	13256882.706453677	1.963400381411351e-009
2.218750	13122523.817241084	1.963400381411351e-009
2.225000	12974126.858248245	1.963400381411351e-009
2.231250	12813599.163046826	1.963400381411351e-009
2.237500	12641984.177957064	1.963400381411351e-009
2.243750	12459994.91391563	1.963400381411351e-009
2.250000	12268010.860400734	1.963400381411351e-009
2.256250	12065019.565973816	0
2.262500	11852128.435723264	1.963400381411351e-009
2.268750	11647044.539656933	1.963400381411351e-009
2.275000	11465332.515713276	0
2.281250	11274436.20817001	1.963400381411351e-009
2.287500	11074223.084954662	1.963400381411351e-009
2.293750	10868149.208933337	0
2.300000	10656721.162898149	1.963400381411351e-009
2.306250	10440758.527707368	0
2.312500	10221680.30950734	0
2.318750	9997156.7455609553	1.963400381411351e-009
2.325000	9769595.1101302486	0
2.331250	9536764.1582453847	0
2.337500	9326924.4261395019	1.963400381411351e-009
2.343750	9125391.5466026682	0
2.350000	8919346.18625951	1.963400381411351e-009
2.356250	8709755.3491662014	0
2.362500	8498184.4127504174	1.963400381411351e-009
2.368750	8284809.5236902218	9.8170019070567548e-010
2.375000	8069906.2402419578	0
2.381250	7853498.4815098401	1.963400381411351e-009
2.387500	7635263.8284493107	9.8170019070567548e-010
2.393750	7414859.3965432867	0
2.400000	7191879.9269334208	0
2.406250	6998588.477104336	0
2.412500	6801424.6723780651	0
2.418750	6602939.6144380299	9.8170019070567548e-010
2.425000	6403474.2576366356	0
2.431250	6204358.1196188126	9.8170019070567548e-010
2.437500	6005531.6847992456	0
2.443750	5808019.1246841112	0
2.450000	5609899.9685689155	9.8170019070567548e-010
2.456250	5414090.0554836849	0
2.462500	5219566.7276709154	0
2.468750	5036225.0565212667	0
2.475000	4865782.2489611479	9.8170019070567548e-010
2.481250	4699030.7450076109	9.8170019070567548e-010
2.487500	4533895.2361476216	9.8170019070567548e-010
2.493750	4372393.0641666139	9.8170019070567548e-010
2.500000	4214994.8688580776	0
2.506250	4063019.2544718618	4.9085009535283774e-010
2.512500	3916455.3356319433	4.9085009535283774e-010
2.518750	3775796.8628445202	4.9085009535283774e-010
2.525000	3640628.1990795499	9.8170019070567548e-010
2.531250	3511285.4536514403	4.9085009535283774e-010
2.537500	3397854.290780697	0
2.543750	3293414.1064834604	4.9085009535283774e-010
2.550000	3196123.0188736762	0
2.556250	3105599.5320073185	4.9085009535283774e-010
2.562500	3022555.4951330097	4.9085009535283774e-010
2.568750	2944644.334563294	4.9085009535283774e-010
