#List of files for average calculation
#Z:\run\3Shells_cylinder_GK\3Shells_cylinder_GK_1
#Z:\run\3Shells_cylinder_GK\3Shells_cylinder_GK_2
#Z:\run\3Shells_cylinder_GK\3Shells_cylinder_GK_3
#Z:\run\3Shells_cylinder_GK\3Shells_cylinder_GK_4
#Z:\run\3Shells_cylinder_GK\3Shells_cylinder_GK_5
#Z:\run\3Shells_cylinder_GK\3Shells_cylinder_GK_6
#Z:\run\3Shells_cylinder_GK\3Shells_cylinder_GK_7
#Z:\run\3Shells_cylinder_GK\3Shells_cylinder_GK_8
#Z:\run\3Shells_cylinder_GK\3Shells_cylinder_GK_9
#Z:\run\3Shells_cylinder_GK\3Shells_cylinder_GK_10
#Average Chi square (Sigma units): 0.55730337078651
#Sigma Chi square: 0
#Calculation was done on GPU
q [nm^-1]	Intensity [A.U]	Sigma [A.U]
0.000000	3574187420.4544611	5.0263049764130585e-007
0.006250	3574700924.1086569	0
0.012500	3573686304.6813955	1.0052609952826117e-006
0.018750	3571153236.5856295	5.0263049764130585e-007
0.025000	3567112417.4141302	0
0.031250	3561575573.8468008	0
0.037500	3554555471.4258995	0
0.043750	3546065928.1991587	5.0263049764130585e-007
0.050000	3536121832.2307901	1.0052609952826117e-006
0.056250	3524739162.9804144	5.0263049764130585e-007
0.062500	3511935016.5498533	5.0263049764130585e-007
0.068750	3498569294.6833448	0
0.075000	3485465450.9138269	5.0263049764130585e-007
0.081250	3470943839.4766302	5.0263049764130585e-007
0.087500	3455028415.6081419	5.0263049764130585e-007
0.093750	3437743952.1424255	0
0.100000	3419115969.6059761	0
0.106250	3399170669.8236861	5.0263049764130585e-007
0.112500	3377934873.036026	0
0.118750	3355435958.5274305	5.0263049764130585e-007
0.125000	3331701808.765903	0
0.131250	3306760757.0538177	0
0.137500	3282108057.1431575	5.0263049764130585e-007
0.143750	3256964058.4967875	0
0.150000	3230621919.3648992	0
0.156250	3203125066.1486163	5.0263049764130585e-007
0.162500	3174517277.9281163	5.0263049764130585e-007
0.168750	3144842628.9987197	5.0263049764130585e-007
0.175000	3114145432.7226305	5.0263049764130585e-007
0.181250	3082470186.6963806	0
0.187500	3049861519.2339406	0
0.193750	3016364137.1655278	5.0263049764130585e-007
0.200000	2982022774.9520845	5.0263049764130585e-007
0.206250	2948693973.2715259	5.0263049764130585e-007
0.212500	2914477059.642139	0
0.218750	2879424067.0896883	5.0263049764130585e-007
0.225000	2843586774.0458651	5.0263049764130585e-007
0.231250	2807016636.8017015	5.0263049764130585e-007
0.237500	2769764724.3063507	0
0.243750	2731881655.3112073	5.0263049764130585e-007
0.250000	2693417537.8594007	5.0263049764130585e-007
0.256250	2654421911.1206174	5.0263049764130585e-007
0.262500	2614943689.5713124	5.0263049764130585e-007
0.268750	2575496084.1437869	5.0263049764130585e-007
0.275000	2536491536.689095	5.0263049764130585e-007
0.281250	2497003376.5978551	0
0.287500	2457085933.7880902	0
0.293750	2416792627.1280866	0
0.300000	2376175903.6846242	0
0.306250	2335287181.124249	0
0.312500	2294176793.2675643	5.0263049764130585e-007
0.318750	2252893938.7965627	5.0263049764130585e-007
0.325000	2211486633.1149626	5.0263049764130585e-007
0.331250	2170001663.3615904	5.0263049764130585e-007
0.337500	2129097057.9728131	2.5131524882065292e-007
0.343750	2088389976.3307862	2.5131524882065292e-007
0.350000	2047598447.3030696	0
0.356250	2006770240.1063952	5.0263049764130585e-007
0.362500	1965951708.2608314	2.5131524882065292e-007
0.368750	1925187747.335362	5.0263049764130585e-007
0.375000	1884521756.366344	0
0.381250	1843995602.9488487	0
0.387500	1803649592.000895	0
0.393750	1763522438.2005563	2.5131524882065292e-007
0.400000	1723651242.0959554	0
0.406250	1684564978.0056725	0
0.412500	1645681269.7834265	2.5131524882065292e-007
0.418750	1607038331.7557735	0
0.425000	1568672758.2327957	0
0.431250	1530619501.2925146	2.5131524882065292e-007
0.437500	1492911852.0624623	2.5131524882065292e-007
0.443750	1455581425.4984319	0
0.450000	1418658148.6603811	2.5131524882065292e-007
0.456250	1382170252.485508	0
0.462500	1346144267.0584929	2.5131524882065292e-007
0.468750	1310679331.3954513	2.5131524882065292e-007
0.475000	1275808182.9331815	2.5131524882065292e-007
0.481250	1241374812.6702445	2.5131524882065292e-007
0.487500	1207403559.1613677	2.5131524882065292e-007
0.493750	1173917136.9470041	0
0.500000	1140936637.4137747	2.5131524882065292e-007
0.506250	1108481532.8253663	2.5131524882065292e-007
0.512500	1076569683.5238688	0
0.518750	1045217348.3015859	1.2565762441032646e-007
0.525000	1014439197.9432833	2.5131524882065292e-007
0.531250	984248331.93889594	1.2565762441032646e-007
0.537500	954658536.73712611	2.5131524882065292e-007
0.543750	925624791.93854737	2.5131524882065292e-007
0.550000	897146728.02112651	0
0.556250	869234918.26912475	2.5131524882065292e-007
0.562500	841898625.93646204	1.2565762441032646e-007
0.568750	815145820.58403051	1.2565762441032646e-007
0.575000	788983196.65394795	0
0.581250	763416194.28075516	0
0.587500	738449022.33955395	0
0.593750	714084683.73108971	1.2565762441032646e-007
0.600000	690325002.90377891	0
0.606250	667054146.455917	1.2565762441032646e-007
0.612500	644350812.50289547	0
0.618750	622216869.32878971	0
0.625000	600653188.06949639	1.2565762441032646e-007
0.631250	579659664.71184313	1.2565762441032646e-007
0.637500	559235243.72801554	1.2565762441032646e-007
0.643750	539377943.34530544	0
0.650000	520084882.45117676	1.2565762441032646e-007
0.656250	501352309.13364732	6.2828812205163231e-008
0.662500	483175630.85699189	1.2565762441032646e-007
0.668750	465507623.04680288	6.2828812205163231e-008
0.675000	448288227.40530121	6.2828812205163231e-008
0.681250	431588181.07672799	1.2565762441032646e-007
0.687500	415400101.76080614	6.2828812205163231e-008
0.693750	399716155.283957	0
0.700000	384528076.70813286	6.2828812205163231e-008
0.706250	369827192.20648539	6.2828812205163231e-008
0.712500	355604441.70587116	6.2828812205163231e-008
0.718750	341850402.29619318	0
0.725000	328555312.40658134	0
0.731250	315709096.74840796	6.2828812205163231e-008
0.737500	303225588.75431424	6.2828812205163231e-008
0.743750	291130279.06866664	6.2828812205163231e-008
0.750000	279450771.53437954	6.2828812205163231e-008
0.756250	268177138.21132272	6.2828812205163231e-008
0.762500	257299370.64920157	3.1414406102581615e-008
0.768750	246807391.31618309	0
0.775000	236691065.38766003	0
0.781250	226940212.89515835	6.2828812205163231e-008
0.787500	217544621.23538393	3.1414406102581615e-008
0.793750	208494058.03941008	0
0.800000	199778284.40200785	0
0.806250	191317792.69822261	0
0.812500	183173158.76066089	0
0.818750	175334671.69422284	3.1414406102581615e-008
0.825000	167792783.2814534	0
0.831250	160538107.08364841	0
0.837500	153561417.82208487	0
0.843750	146853651.03937712	3.1414406102581615e-008
0.850000	140405903.04095608	3.1414406102581615e-008
0.856250	134209431.11667392	0
0.862500	128255654.04253122	1.5707203051290808e-008
0.868750	122528125.67840877	1.5707203051290808e-008
0.875000	117011665.53088722	0
0.881250	111714436.73886988	3.1414406102581615e-008
0.887500	106628196.3696371	1.5707203051290808e-008
0.893750	101745018.13283171	1.5707203051290808e-008
0.900000	97057280.94684872	1.5707203051290808e-008
0.906250	92557657.834768653	0
0.912500	88239105.14983663	1.5707203051290808e-008
0.918750	84094852.130485192	0
0.925000	80118390.784902707	1.5707203051290808e-008
0.931250	76303466.105145738	1.5707203051290808e-008
0.937500	72647268.442764178	1.5707203051290808e-008
0.943750	69142490.600041956	1.5707203051290808e-008
0.950000	65782101.794878706	0
0.956250	62560965.218532309	1.5707203051290808e-008
0.962500	59474225.80993323	7.8536015256454039e-009
0.968750	56517291.126705453	7.8536015256454039e-009
0.975000	53685812.88869901	7.8536015256454039e-009
0.981250	50975669.194033131	7.8536015256454039e-009
0.987500	48382947.407651298	0
0.993750	45903927.722386971	7.8536015256454039e-009
1.000000	43535067.392541222	7.8536015256454039e-009
1.006250	41294960.257269569	7.8536015256454039e-009
1.012500	39155506.936024405	7.8536015256454039e-009
1.018750	37113620.10299176	0
1.025000	35166427.297720179	7.8536015256454039e-009
1.031250	33311249.157246433	3.9268007628227019e-009
1.037500	31545578.577865474	3.9268007628227019e-009
1.043750	29867060.806542475	0
1.050000	28273474.461967759	3.9268007628227019e-009
1.056250	26762713.485254992	3.9268007628227019e-009
1.062500	25332770.020281799	3.9268007628227019e-009
1.068750	23991151.5965009	0
1.075000	22742854.708389781	3.9268007628227019e-009
1.081250	21565984.265738461	0
1.087500	20458930.781780303	0
1.093750	19420190.443378724	3.9268007628227019e-009
1.100000	18448345.673891015	3.9268007628227019e-009
1.106250	17542046.779875387	3.9268007628227019e-009
1.112500	16699994.681641648	0
1.118750	15920712.306109872	0
1.125000	15202879.34298626	1.963400381411351e-009
1.131250	14545731.002349567	1.963400381411351e-009
1.137500	13966740.861348782	0
1.143750	13452378.21644507	1.963400381411351e-009
1.150000	12991584.26837009	1.963400381411351e-009
1.156250	12583276.731040942	1.963400381411351e-009
1.162500	12226381.580360666	0
1.168750	11919819.478643449	1.963400381411351e-009
1.175000	11662493.271870019	1.963400381411351e-009
1.181250	11453276.559772896	0
1.187500	11291003.338751886	1.963400381411351e-009
1.193750	11174458.717619454	1.963400381411351e-009
1.200000	11102370.70617619	0
1.206250	11101953.226255553	0
1.212500	11141457.062009318	1.963400381411351e-009
1.218750	11219698.291555466	1.963400381411351e-009
1.225000	11335451.985646259	1.963400381411351e-009
1.231250	11487444.07065369	0
1.237500	11674344.158219712	1.963400381411351e-009
1.243750	11894759.341570865	1.963400381411351e-009
1.250000	12147228.95849769	0
1.256250	12430220.320998697	0
1.262500	12742125.411588918	1.963400381411351e-009
1.268750	13092248.168393945	1.963400381411351e-009
1.275000	13489623.944546193	0
1.281250	13910638.830922719	0
1.287500	14353806.769588832	1.963400381411351e-009
1.293750	14817614.082270082	1.963400381411351e-009
1.300000	15300515.746658627	1.963400381411351e-009
1.306250	15800932.396571103	3.9268007628227019e-009
1.312500	16317248.045957586	0
1.318750	16847808.536761753	3.9268007628227019e-009
1.325000	17390920.71063238	3.9268007628227019e-009
1.331250	17944852.304485939	3.9268007628227019e-009
1.337500	18535781.142397132	0
1.343750	19148690.432087805	3.9268007628227019e-009
1.350000	19767995.814595427	0
1.356250	20391933.494368348	0
1.362500	21018730.728106104	3.9268007628227019e-009
1.368750	21646605.72689892	3.9268007628227019e-009
1.375000	22273768.011547185	3.9268007628227019e-009
1.381250	22898419.221060846	3.9268007628227019e-009
1.387500	23518754.37433878	3.9268007628227019e-009
1.393750	24132963.585028149	3.9268007628227019e-009
1.400000	24739234.229563471	0
1.406250	25385503.588507745	3.9268007628227019e-009
1.412500	26021699.702325668	0
1.418750	26646382.648530968	3.9268007628227019e-009
1.425000	27258152.248749025	3.9268007628227019e-009
1.431250	27855647.355556317	7.8536015256454039e-009
1.437500	28437545.407584839	3.9268007628227019e-009
1.443750	29002562.252891392	0
1.450000	29549452.240592368	0
1.456250	30077008.58076328	0
1.462500	30584063.972603671	3.9268007628227019e-009
1.468750	31088452.680762477	3.9268007628227019e-009
1.475000	31608236.168982275	3.9268007628227019e-009
1.481250	32104620.736156266	0
1.487500	32576726.570091181	3.9268007628227019e-009
1.493750	33023738.047004998	0
1.500000	33444902.11387869	0
1.506250	33839526.822460286	0
1.512500	34206980.014921211	7.8536015256454039e-009
1.518750	34546688.161165111	7.8536015256454039e-009
1.525000	34858135.347788736	7.8536015256454039e-009
1.531250	35140862.418695495	7.8536015256454039e-009
1.537500	35433712.625885963	0
1.543750	35716023.121301472	0
1.550000	35967817.77821289	7.8536015256454039e-009
1.556250	36188962.078480139	7.8536015256454039e-009
1.562500	36379390.075667791	0
1.568750	36539101.199210003	7.8536015256454039e-009
1.575000	36668157.176181383	0
1.581250	36766679.070673525	0
1.587500	36834844.440777324	7.8536015256454039e-009
1.593750	36872884.613171116	7.8536015256454039e-009
1.600000	36881082.075314455	7.8536015256454039e-009
1.606250	36913868.275990717	0
1.612500	36915323.338570125	0
1.618750	36886127.188437991	0
1.625000	36827012.423767462	7.8536015256454039e-009
1.631250	36738759.36896985	7.8536015256454039e-009
1.637500	36622191.308653429	7.8536015256454039e-009
1.643750	36478169.902091257	7.8536015256454039e-009
1.650000	36307590.778197043	0
1.656250	36111379.311010264	7.8536015256454039e-009
1.662500	35890486.575689569	7.8536015256454039e-009
1.668750	35661870.097654834	7.8536015256454039e-009
1.675000	35440239.284806862	7.8536015256454039e-009
1.681250	35193511.596108854	0
1.687500	34922732.708290413	7.8536015256454039e-009
1.693750	34628967.546303645	7.8536015256454039e-009
1.700000	34313295.589947924	7.8536015256454039e-009
1.706250	33976806.407728665	7.8536015256454039e-009
1.712500	33620595.41795022	0
1.718750	33245759.877042525	3.9268007628227019e-009
1.725000	32853395.095121704	0
1.731250	32444590.878784858	3.9268007628227019e-009
1.737500	32043992.450724047	0
1.743750	31637952.918964129	0
1.750000	31215434.887168221	0
1.756250	30777791.965804435	7.8536015256454039e-009
1.762500	30326361.265504412	3.9268007628227019e-009
1.768750	29862459.126042463	0
1.775000	29387377.130190842	0
1.781250	28902378.402450867	3.9268007628227019e-009
1.787500	28408694.192660235	0
1.793750	27907520.74447611	0
1.800000	27400016.448734559	3.9268007628227019e-009
1.806250	26912725.529807158	0
1.812500	26417900.438616332	0
1.818750	25916601.532474395	3.9268007628227019e-009
1.825000	25409855.50816704	3.9268007628227019e-009
1.831250	24898652.900891591	3.9268007628227019e-009
1.837500	24383945.836194936	3.9268007628227019e-009
1.843750	23866646.034911804	3.9268007628227019e-009
1.850000	23347623.071102556	3.9268007628227019e-009
1.856250	22827702.882991135	0
1.862500	22307666.536902755	0
1.868750	21793580.0341895	3.9268007628227019e-009
1.875000	21289791.336882737	0
1.881250	20785697.820568133	3.9268007628227019e-009
1.887500	20282218.476705343	0
1.893750	19780222.805984613	3.9268007628227019e-009
1.900000	19280529.518656783	3.9268007628227019e-009
1.906250	18783905.479087859	0
1.912500	18291064.894537453	3.9268007628227019e-009
1.918750	17802668.748161845	3.9268007628227019e-009
1.925000	17319419.046660073	3.9268007628227019e-009
1.931250	16841701.029157925	3.9268007628227019e-009
1.937500	16377027.825461617	0
1.943750	15920810.423918862	1.963400381411351e-009
1.950000	15469711.392613422	1.963400381411351e-009
1.956250	15024144.881468246	0
1.962500	14584485.746339545	0
1.968750	14151069.690598559	1.963400381411351e-009
1.975000	13724193.560068607	0
1.981250	13304115.791317163	1.963400381411351e-009
1.987500	12890979.957845734	1.963400381411351e-009
1.993750	12485131.169436308	0
2.000000	12086630.75991784	0
2.006250	11701520.694862302	1.963400381411351e-009
2.012500	11323067.331619678	1.963400381411351e-009
2.018750	10951491.37021533	1.963400381411351e-009
2.025000	10586982.833134172	0
2.031250	10229701.497850543	1.963400381411351e-009
2.037500	9879777.4345223587	1.963400381411351e-009
2.043750	9537311.6488503087	0
2.050000	9202376.8301017266	1.963400381411351e-009
2.056250	8875018.2042987701	1.963400381411351e-009
2.062500	8555254.4925719146	1.963400381411351e-009
2.068750	8244645.1829707157	9.8170019070567548e-010
2.075000	7944313.8918222636	0
2.081250	7650950.6797344964	9.8170019070567548e-010
2.087500	7364589.8857752923	9.8170019070567548e-010
2.093750	7085249.7130860742	0
2.100000	6812932.6069539357	9.8170019070567548e-010
2.106250	6547625.6897521308	9.8170019070567548e-010
2.112500	6289301.2527484139	9.8170019070567548e-010
2.118750	6037917.3047812972	9.8170019070567548e-010
2.125000	5793418.1778045436	0
2.131250	5555735.189299426	0
2.137500	5327358.8332033372	9.8170019070567548e-010
2.143750	5106604.803258108	9.8170019070567548e-010
2.150000	4892094.1305927578	9.8170019070567548e-010
2.156250	4683797.4613212654	9.8170019070567548e-010
2.162500	4481679.5019115144	0
2.168750	4285698.9538394064	0
2.175000	4095808.4842986232	9.8170019070567548e-010
2.181250	3911954.7329659751	9.8170019070567548e-010
2.187500	3734078.3548224112	0
2.193750	3562114.0990296407	4.9085009535283774e-010
2.200000	3395990.9238624694	4.9085009535283774e-010
2.206250	3238980.7574387938	0
2.212500	3087363.0455509662	4.9085009535283774e-010
2.218750	2941125.1570695718	0
2.225000	2800251.7825261648	4.9085009535283774e-010
2.231250	2664724.3870934132	0
2.237500	2534520.7061020168	0
2.243750	2409614.2830943475	4.9085009535283774e-010
2.250000	2289974.050414748	4.9085009535283774e-010
2.256250	2175563.9523365418	4.9085009535283774e-010
2.262500	2066342.6107257153	2.4542504767641887e-010
2.268750	1963278.7840642049	0
2.275000	1867126.3870266159	2.4542504767641887e-010
2.281250	1775741.3171098069	0
2.287500	1689125.7819009549	0
2.293750	1607277.4515753246	2.4542504767641887e-010
2.300000	1530188.6774209833	0
2.306250	1457845.7703737749	2.4542504767641887e-010
2.312500	1390141.8916922773	0
2.318750	1327214.2513783241	0
2.325000	1268947.5504072928	2.4542504767641887e-010
2.331250	1215297.8681941461	0
2.337500	1167974.5794802238	2.4542504767641887e-010
2.343750	1125842.0007343849	0
2.350000	1087964.5885216983	2.4542504767641887e-010
2.356250	1054326.1044690274	0
2.362500	1024902.6021888948	0
2.368750	999661.70893119532	1.2271252383820944e-010
2.375000	978561.98126667179	0
2.381250	961552.33480207995	0
2.387500	948571.54792710231	1.2271252383820944e-010
2.393750	939547.83959297021	0
2.400000	934484.04683558666	1.2271252383820944e-010
2.406250	935716.57369127439	0
2.412500	940546.02901440696	2.4542504767641887e-010
2.418750	948912.18267322355	0
2.425000	960744.62687683688	1.2271252383820944e-010
2.431250	975962.31682854018	0
2.437500	994473.19043433177	0
2.443750	1016173.8670667273	0
2.450000	1040949.425383819	2.4542504767641887e-010
2.456250	1068673.2602035967	2.4542504767641887e-010
2.462500	1099207.0184335427	0
2.468750	1133401.9919597676	0
2.475000	1172142.1487319586	2.4542504767641887e-010
2.481250	1213320.3126819883	2.4542504767641887e-010
2.487500	1256814.6248268019	0
2.493750	1302495.0119239723	0
2.500000	1350223.0456287751	2.4542504767641887e-010
2.506250	1399851.8696530021	2.4542504767641887e-010
2.512500	1451226.1949254503	2.4542504767641887e-010
2.518750	1504182.3627541442	2.4542504767641887e-010
2.525000	1558548.4759902766	0
2.531250	1614144.5981938259	2.4542504767641887e-010
2.537500	1673452.0196494183	0
2.543750	1735114.2627084092	0
2.550000	1797658.7482378283	2.4542504767641887e-010
2.556250	1860910.5266819191	0
2.562500	1924688.9543128535	0
2.568750	1988807.8861421109	4.9085009535283774e-010
2.575000	2053075.9203782273	2.4542504767641887e-010
2.581250	2117296.6944308365	4.9085009535283774e-010
2.587500	2181269.2324611177	4.9085009535283774e-010
2.593750	2244800.0549848592	4.9085009535283774e-010
2.600000	2307658.2194835036	4.9085009535283774e-010
2.606250	2374650.2851830134	4.9085009535283774e-010
2.612500	2440836.2061274089	0
2.618750	2506044.4483298319	4.9085009535283774e-010
2.625000	2570117.4612957984	0
2.631250	2632898.6577067371	0
2.637500	2694232.567045216	0
2.643750	2753965.0206621597	4.9085009535283774e-010
2.650000	2811943.3682861356	4.9085009535283774e-010
2.656250	2868016.7259746641	0
2.662500	2922036.2555075646	4.9085009535283774e-010
2.668750	2975896.3849587706	4.9085009535283774e-010
2.675000	3031598.1533847046	0
2.681250	3084993.2906373818	4.9085009535283774e-010
2.687500	3135919.1907423027	0
2.693750	3184268.8559082407	4.9085009535283774e-010
2.700000	3229923.0190161173	4.9085009535283774e-010
2.706250	3272775.281820897	0
2.712500	3312705.1795742135	4.9085009535283774e-010
2.718750	3349606.6561227734	4.9085009535283774e-010
2.725000	3383378.7533809291	4.9085009535283774e-010
2.731250	3413925.7936281068	4.9085009535283774e-010
2.737500	3445459.184771019	0
2.743750	3475773.1119253747	0
2.750000	3502686.8196155308	4.9085009535283774e-010
2.756250	3526177.0869155684	4.9085009535283774e-010
2.762500	3546227.8690031851	4.9085009535283774e-010
2.768750	3562830.0617626971	4.9085009535283774e-010
2.775000	3575981.2792104324	9.8170019070567548e-010
