#List of files for average calculation
#C:\D+_tests\Symmetry\GPU\Without_Hydration\Space_Filling_Symmetry_Implicit_No_Charges_Without_Hydration_Hybrid_Gauss_Kronrod_Amp\Space_Filling_Symmetry_Implicit_No_Charges_Without_Hydration_Hybrid_Gauss_Kronrod_Amp_1
#C:\D+_tests\Symmetry\GPU\Without_Hydration\Space_Filling_Symmetry_Implicit_No_Charges_Without_Hydration_Hybrid_Gauss_Kronrod_Amp\Space_Filling_Symmetry_Implicit_No_Charges_Without_Hydration_Hybrid_Gauss_Kronrod_Amp_2
#C:\D+_tests\Symmetry\GPU\Without_Hydration\Space_Filling_Symmetry_Implicit_No_Charges_Without_Hydration_Hybrid_Gauss_Kronrod_Amp\Space_Filling_Symmetry_Implicit_No_Charges_Without_Hydration_Hybrid_Gauss_Kronrod_Amp_3
#C:\D+_tests\Symmetry\GPU\Without_Hydration\Space_Filling_Symmetry_Implicit_No_Charges_Without_Hydration_Hybrid_Gauss_Kronrod_Amp\Space_Filling_Symmetry_Implicit_No_Charges_Without_Hydration_Hybrid_Gauss_Kronrod_Amp_4
#C:\D+_tests\Symmetry\GPU\Without_Hydration\Space_Filling_Symmetry_Implicit_No_Charges_Without_Hydration_Hybrid_Gauss_Kronrod_Amp\Space_Filling_Symmetry_Implicit_No_Charges_Without_Hydration_Hybrid_Gauss_Kronrod_Amp_5
#C:\D+_tests\Symmetry\GPU\Without_Hydration\Space_Filling_Symmetry_Implicit_No_Charges_Without_Hydration_Hybrid_Gauss_Kronrod_Amp\Space_Filling_Symmetry_Implicit_No_Charges_Without_Hydration_Hybrid_Gauss_Kronrod_Amp_6
#C:\D+_tests\Symmetry\GPU\Without_Hydration\Space_Filling_Symmetry_Implicit_No_Charges_Without_Hydration_Hybrid_Gauss_Kronrod_Amp\Space_Filling_Symmetry_Implicit_No_Charges_Without_Hydration_Hybrid_Gauss_Kronrod_Amp_7
#C:\D+_tests\Symmetry\GPU\Without_Hydration\Space_Filling_Symmetry_Implicit_No_Charges_Without_Hydration_Hybrid_Gauss_Kronrod_Amp\Space_Filling_Symmetry_Implicit_No_Charges_Without_Hydration_Hybrid_Gauss_Kronrod_Amp_8
#C:\D+_tests\Symmetry\GPU\Without_Hydration\Space_Filling_Symmetry_Implicit_No_Charges_Without_Hydration_Hybrid_Gauss_Kronrod_Amp\Space_Filling_Symmetry_Implicit_No_Charges_Without_Hydration_Hybrid_Gauss_Kronrod_Amp_9
#C:\D+_tests\Symmetry\GPU\Without_Hydration\Space_Filling_Symmetry_Implicit_No_Charges_Without_Hydration_Hybrid_Gauss_Kronrod_Amp\Space_Filling_Symmetry_Implicit_No_Charges_Without_Hydration_Hybrid_Gauss_Kronrod_Amp_10
#Average Chi square (Sigma units): 0.58314606741573
#Sigma Chi square: 0
#Calculation was done on GPU
q [nm^-1]	Intensity [A.U]	Sigma [A.U]
0.000000	43448519675.188942	8.0420879622608936e-006
0.006250	43490707450.667168	0
0.012500	43446398841.46563	8.0420879622608936e-006
0.018750	43319574580.740608	8.0420879622608936e-006
0.025000	43112953257.59861	8.0420879622608936e-006
0.031250	42828041883.457512	8.0420879622608936e-006
0.037500	42465277851.424126	0
0.043750	42024253267.284981	8.0420879622608936e-006
0.050000	41504009105.886726	8.0420879622608936e-006
0.056250	40903383620.765091	8.0420879622608936e-006
0.062500	40221397020.518677	0
0.068750	39512157149.922859	8.0420879622608936e-006
0.075000	38828175913.301201	8.0420879622608936e-006
0.081250	38066478509.66259	8.0420879622608936e-006
0.087500	37236019413.538765	8.0420879622608936e-006
0.093750	36345349532.285088	0
0.100000	35402431918.89888	8.0420879622608936e-006
0.106250	34414533002.71917	8.0420879622608936e-006
0.112500	33388181623.353447	4.0210439811304468e-006
0.118750	32329185812.800926	0
0.125000	31242695589.163063	4.0210439811304468e-006
0.131250	30133299037.340202	8.0420879622608936e-006
0.137500	29074911798.660408	4.0210439811304468e-006
0.143750	28029005634.029625	4.0210439811304468e-006
0.150000	26968100392.84235	0
0.156250	25900675876.377625	0
0.162500	24834048062.487526	4.0210439811304468e-006
0.168750	23774412291.141384	0
0.175000	22726924298.414639	4.0210439811304468e-006
0.181250	21695808092.643925	4.0210439811304468e-006
0.187500	20684479951.134865	4.0210439811304468e-006
0.193750	19695678547.64822	4.0210439811304468e-006
0.200000	18731592339.961826	4.0210439811304468e-006
0.206250	17849896684.846226	4.0210439811304468e-006
0.212500	16988842568.285809	0
0.218750	16149732399.433437	0
0.225000	15339504062.960087	2.0105219905652234e-006
0.231250	14557928674.364109	4.0210439811304468e-006
0.237500	13806239334.59837	2.0105219905652234e-006
0.243750	13085130152.819746	2.0105219905652234e-006
0.250000	12394853287.866865	2.0105219905652234e-006
0.256250	11735304455.55827	2.0105219905652234e-006
0.262500	11106094876.24148	2.0105219905652234e-006
0.268750	10515279075.31389	2.0105219905652234e-006
0.275000	9969670651.5284996	2.0105219905652234e-006
0.281250	9447455898.1137581	2.0105219905652234e-006
0.287500	8950335015.4849968	2.0105219905652234e-006
0.293750	8477829103.401598	1.0052609952826117e-006
0.300000	8029302335.7305908	0
0.306250	7604019771.5355549	1.0052609952826117e-006
0.312500	7202401659.1815472	2.0105219905652234e-006
0.318750	6820949066.1449308	1.0052609952826117e-006
0.325000	6459466712.0496702	1.0052609952826117e-006
0.331250	6116772078.7384653	1.0052609952826117e-006
0.337500	5800396833.5903797	1.0052609952826117e-006
0.343750	5503386287.308424	1.0052609952826117e-006
0.350000	5220271443.6810436	1.0052609952826117e-006
0.356250	4950301561.0518026	0
0.362500	4692717558.2322626	0
0.368750	4446770799.8173647	1.0052609952826117e-006
0.375000	4211734955.5175047	5.0263049764130585e-007
0.381250	3985996945.5639391	0
0.387500	3771035187.1656427	5.0263049764130585e-007
0.393750	3564969133.9413033	0
0.400000	3367196471.0444875	5.0263049764130585e-007
0.406250	3184545684.8727145	5.0263049764130585e-007
0.412500	3008205469.623054	5.0263049764130585e-007
0.418750	2838066123.3958464	5.0263049764130585e-007
0.425000	2674051994.5425296	5.0263049764130585e-007
0.431250	2516112567.7416139	5.0263049764130585e-007
0.437500	2364213318.9705415	5.0263049764130585e-007
0.443750	2218327337.1585736	0
0.450000	2078428446.0110431	2.5131524882065292e-007
0.456250	1944486192.6039977	2.5131524882065292e-007
0.462500	1816463608.0766397	2.5131524882065292e-007
0.468750	1695682265.2100751	2.5131524882065292e-007
0.475000	1582887604.5164776	0
0.481250	1475170936.2354066	2.5131524882065292e-007
0.487500	1372658177.4494376	2.5131524882065292e-007
0.493750	1275460338.0387213	0
0.500000	1183639898.0889747	2.5131524882065292e-007
0.506250	1097228810.9150727	2.5131524882065292e-007
0.512500	1016189491.5606997	1.2565762441032646e-007
0.518750	940452533.82438254	1.2565762441032646e-007
0.525000	869928541.50971675	1.2565762441032646e-007
0.531250	804482409.81687152	0
0.537500	744993009.40832317	0
0.543750	690483930.54564369	0
0.550000	640265229.15183628	1.2565762441032646e-007
0.556250	594192070.4694016	1.2565762441032646e-007
0.562500	552085071.66023433	0
0.568750	513737467.34683353	0
0.575000	478922515.77106225	6.2828812205163231e-008
0.581250	447400469.23826945	6.2828812205163231e-008
0.587500	418924550.13502592	0
0.593750	393245544.00470835	6.2828812205163231e-008
0.600000	370114825.07688504	6.2828812205163231e-008
0.606250	350062532.01706594	6.2828812205163231e-008
0.612500	331933520.91964072	6.2828812205163231e-008
0.618750	315663530.0274834	6.2828812205163231e-008
0.625000	300861662.15473169	0
0.631250	287236559.6234436	0
0.637500	274853596.6787405	0
0.643750	263438628.03971487	3.1414406102581615e-008
0.650000	252851564.31974855	0
0.656250	242973249.94645697	0
0.662500	233702233.75893146	3.1414406102581615e-008
0.668750	225298262.75492698	3.1414406102581615e-008
0.675000	217594193.29911727	3.1414406102581615e-008
0.681250	209929116.17616603	3.1414406102581615e-008
0.687500	202406551.05201989	3.1414406102581615e-008
0.693750	194925154.16461441	0
0.700000	187455610.51728335	3.1414406102581615e-008
0.706250	180080967.44281292	0
0.712500	172798405.28647444	3.1414406102581615e-008
0.718750	165632833.41266537	0
0.725000	158691217.65682033	0
0.731250	151942613.35121804	3.1414406102581615e-008
0.737500	145765306.16752672	0
0.743750	139791725.56379867	0
0.750000	133848813.69578233	0
0.756250	127875988.16251823	3.1414406102581615e-008
0.762500	122173614.05438372	1.5707203051290808e-008
0.768750	116688748.94858471	1.5707203051290808e-008
0.775000	111471438.10211006	1.5707203051290808e-008
0.781250	106564456.80328061	1.5707203051290808e-008
0.787500	101995069.69406629	0
0.793750	97775080.438306361	1.5707203051290808e-008
0.800000	93900288.710141942	1.5707203051290808e-008
0.806250	90637455.826151043	1.5707203051290808e-008
0.812500	87600634.982586145	0
0.818750	84805761.128283501	0
0.825000	82263588.076447472	1.5707203051290808e-008
0.831250	79975374.582741588	1.5707203051290808e-008
0.837500	77933525.704984084	1.5707203051290808e-008
0.843750	76117993.922706977	0
0.850000	74498201.81133844	1.5707203051290808e-008
0.856250	73034656.097316772	1.5707203051290808e-008
0.862500	71680974.309861764	1.5707203051290808e-008
0.868750	70314249.655533761	1.5707203051290808e-008
0.875000	69319093.422291309	1.5707203051290808e-008
0.881250	68357114.75653182	1.5707203051290808e-008
0.887500	67412356.133087486	1.5707203051290808e-008
0.893750	66466321.908777341	1.5707203051290808e-008
0.900000	65535180.98123809	0
0.906250	64481550.630423084	7.8536015256454039e-009
0.912500	63386791.181528494	0
0.918750	62190921.497871473	0
0.925000	60888809.215706229	0
0.931250	59465792.943882182	7.8536015256454039e-009
0.937500	58059675.65944536	0
0.943750	56623952.798405513	7.8536015256454039e-009
0.950000	55106082.160513476	7.8536015256454039e-009
0.956250	53521339.173227146	7.8536015256454039e-009
0.962500	51883946.072789438	7.8536015256454039e-009
0.968750	50207524.903809361	7.8536015256454039e-009
0.975000	48505719.306800723	0
0.981250	46820629.488716222	7.8536015256454039e-009
0.987500	45118896.656741694	7.8536015256454039e-009
0.993750	43444192.394319527	7.8536015256454039e-009
1.000000	41799602.744709782	7.8536015256454039e-009
1.006250	40316957.703387491	0
1.012500	38903291.422036722	7.8536015256454039e-009
1.018750	37578482.92887266	7.8536015256454039e-009
1.025000	36358632.538963392	7.8536015256454039e-009
1.031250	35234081.380462706	0
1.037500	34263719.186677113	7.8536015256454039e-009
1.043750	33426094.19980938	3.9268007628227019e-009
1.050000	32724481.560704596	7.8536015256454039e-009
1.056250	32155084.080867268	3.9268007628227019e-009
1.062500	31728649.80113693	0
1.068750	31439685.89954422	0
1.075000	31296401.585452817	0
1.081250	31263965.655555971	3.9268007628227019e-009
1.087500	31333325.774202697	0
1.093750	31479033.966129713	0
1.100000	31716406.175448842	0
1.106250	32017519.97002558	0
1.112500	32368083.556531508	0
1.118750	32749974.587407745	3.9268007628227019e-009
1.125000	33141106.686743937	3.9268007628227019e-009
1.131250	33536544.375669323	0
1.137500	33945818.078419745	0
1.143750	34340385.185675032	7.8536015256454039e-009
1.150000	34687458.861585848	0
1.156250	34973624.263287887	7.8536015256454039e-009
1.162500	35196625.300369263	0
1.168750	35344685.161178112	0
1.175000	35411065.054605767	7.8536015256454039e-009
1.181250	35390560.548183702	7.8536015256454039e-009
1.187500	35277686.545908086	7.8536015256454039e-009
1.193750	35070714.366704717	7.8536015256454039e-009
1.200000	34744391.359391116	7.8536015256454039e-009
1.206250	34437439.892745502	7.8536015256454039e-009
1.212500	34023801.658336654	7.8536015256454039e-009
1.218750	33514583.242780633	3.9268007628227019e-009
1.225000	32921643.51102487	0
1.231250	32262358.057573669	3.9268007628227019e-009
1.237500	31544340.851442076	7.8536015256454039e-009
1.243750	30789352.726420172	7.8536015256454039e-009
1.250000	29987738.865109842	0
1.256250	29160042.401410997	0
1.262500	28316096.20862297	0
1.268750	27479039.064134449	0
1.275000	26663067.113904174	0
1.281250	25851731.838936508	0
1.287500	25056622.292435206	3.9268007628227019e-009
1.293750	24287425.614917491	0
1.300000	23552075.181373749	0
1.306250	22842486.711123459	3.9268007628227019e-009
1.312500	22195186.476706203	0
1.318750	21610872.264034532	3.9268007628227019e-009
1.325000	21064240.126918495	0
1.331250	20570666.150896739	3.9268007628227019e-009
1.337500	20140084.494386472	3.9268007628227019e-009
1.343750	19761913.782721993	0
1.350000	19427862.687783301	0
1.356250	19134919.696038608	3.9268007628227019e-009
1.362500	18872566.901282702	0
1.368750	18649874.278718255	3.9268007628227019e-009
1.375000	18455005.69034452	3.9268007628227019e-009
1.381250	18284798.598896991	3.9268007628227019e-009
1.387500	18133546.001282755	0
1.393750	17989664.15497965	0
1.400000	17850778.441281412	3.9268007628227019e-009
1.406250	17751733.549259301	3.9268007628227019e-009
1.412500	17630185.304737363	0
1.418750	17506408.47732079	0
1.425000	17350963.668533567	3.9268007628227019e-009
1.431250	17168097.889589738	3.9268007628227019e-009
1.437500	16959838.222961757	3.9268007628227019e-009
1.443750	16723853.469498238	0
1.450000	16460161.427164208	3.9268007628227019e-009
1.456250	16168814.06261662	0
1.462500	15842762.684848908	0
1.468750	15524892.468751471	0
1.475000	15207068.976111058	1.963400381411351e-009
1.481250	14845700.271237683	1.963400381411351e-009
1.487500	14445445.585711103	1.963400381411351e-009
1.493750	14011152.986316171	1.963400381411351e-009
1.500000	13552019.81637061	1.963400381411351e-009
1.506250	13073652.580983268	0
1.512500	12582201.911289698	1.963400381411351e-009
1.518750	12085164.904462334	1.963400381411351e-009
1.525000	11586807.310048176	0
1.531250	10927028.744781839	1.963400381411351e-009
1.537500	10637135.711268917	0
1.543750	10193243.88284011	1.963400381411351e-009
1.550000	9744611.1717861947	1.963400381411351e-009
1.556250	9298850.5291370433	0
1.562500	8863158.0131366663	1.963400381411351e-009
1.568750	8444063.5475728977	1.963400381411351e-009
1.575000	8046316.641708551	9.8170019070567548e-010
1.581250	7675022.4139457839	0
1.587500	7332368.4328334201	9.8170019070567548e-010
1.593750	7019076.4134986494	9.8170019070567548e-010
1.600000	6736313.337060513	9.8170019070567548e-010
1.606250	6514962.8615951836	0
1.612500	6310717.8631007886	9.8170019070567548e-010
1.618750	6128355.573979564	0
1.625000	5968051.628386802	0
1.631250	5832080.1306518754	0
1.637500	5720048.5887427209	9.8170019070567548e-010
1.643750	5631687.7365192445	9.8170019070567548e-010
1.650000	5565386.9241945157	9.8170019070567548e-010
1.656250	5519062.1010348406	9.8170019070567548e-010
1.662500	5490728.9953319728	0
1.668750	5482890.7820781944	9.8170019070567548e-010
1.675000	5499872.2743481603	9.8170019070567548e-010
1.681250	5523964.4859736692	9.8170019070567548e-010
1.687500	5556729.6181313619	0
1.693750	5595478.0350065203	9.8170019070567548e-010
1.700000	5639892.6848856267	9.8170019070567548e-010
1.706250	5688746.3215865055	0
1.712500	5740654.8509204993	9.8170019070567548e-010
1.718750	5795253.888843067	0
1.725000	5849126.3602909679	9.8170019070567548e-010
1.731250	5901746.7240922172	9.8170019070567548e-010
1.737500	5966193.0409928095	9.8170019070567548e-010
1.743750	6034303.7001841078	9.8170019070567548e-010
1.750000	6101803.9450277695	0
1.756250	6167572.2826575162	9.8170019070567548e-010
1.762500	6231767.0963075161	0
1.768750	6294483.429549234	9.8170019070567548e-010
1.775000	6355737.2106599789	9.8170019070567548e-010
1.781250	6415591.9601378599	0
1.787500	6473960.3913503597	0
1.793750	6530827.4073469052	0
1.800000	6586033.2318346063	9.8170019070567548e-010
1.806250	6659208.127058655	0
1.812500	6735232.7682664115	1.963400381411351e-009
1.818750	6810613.2574183661	9.8170019070567548e-010
1.825000	6887189.2258771565	9.8170019070567548e-010
1.831250	6965943.7267206442	9.8170019070567548e-010
1.837500	7044995.8106965367	9.8170019070567548e-010
1.843750	7126373.2159922291	0
1.850000	7209163.1790432557	0
1.856250	7292969.7836924773	9.8170019070567548e-010
1.862500	7377136.1615377534	0
1.868750	7469341.215682419	9.8170019070567548e-010
1.875000	7578683.8071935531	0
1.881250	7688610.1892396826	1.963400381411351e-009
1.887500	7799608.7411378752	9.8170019070567548e-010
1.893750	7909805.0102003347	1.963400381411351e-009
1.900000	8020297.3158342224	9.8170019070567548e-010
1.906250	8130265.8159711193	0
1.912500	8238927.2888915371	9.8170019070567548e-010
1.918750	8348050.2864304576	0
1.925000	8451899.8174914885	0
1.931250	8550915.5833828598	0
1.937500	8664422.9197603595	1.963400381411351e-009
1.943750	8784622.2438622732	0
1.950000	8896730.9489923548	0
1.956250	9007494.1103511788	1.963400381411351e-009
1.962500	9113815.5704238247	0
1.968750	9215648.4138647299	0
1.975000	9312789.8215074241	0
1.981250	9404873.7642414272	0
1.987500	9491327.7755290102	1.963400381411351e-009
1.993750	9571415.1296616625	1.963400381411351e-009
2.000000	9644220.4159462769	0
2.006250	9746095.7505882848	0
2.012500	9844235.3242420498	1.963400381411351e-009
2.018750	9935079.3920401763	0
2.025000	10020537.94643688	0
2.031250	10100889.701375764	1.963400381411351e-009
2.037500	10179316.495204689	1.963400381411351e-009
2.043750	10250849.28316492	0
2.050000	10315732.531923141	1.963400381411351e-009
2.056250	10373787.098254401	1.963400381411351e-009
2.062500	10423939.607965318	1.963400381411351e-009
2.068750	10478922.874975098	1.963400381411351e-009
2.075000	10552862.929313999	1.963400381411351e-009
2.081250	10618729.090204105	0
2.087500	10676896.355179805	1.963400381411351e-009
2.093750	10727573.477267582	1.963400381411351e-009
2.100000	10770701.476957912	1.963400381411351e-009
2.106250	10804115.853598351	1.963400381411351e-009
2.112500	10832192.074211705	1.963400381411351e-009
2.118750	10850667.86686541	0
2.125000	10858689.405415164	0
2.131250	10854955.668033782	1.963400381411351e-009
2.137500	10868452.189414579	1.963400381411351e-009
2.143750	10884417.323031602	1.963400381411351e-009
2.150000	10888413.404393522	1.963400381411351e-009
2.156250	10880933.021435414	1.963400381411351e-009
2.162500	10861419.738466186	1.963400381411351e-009
2.168750	10831801.534925727	0
2.175000	10791069.736966578	1.963400381411351e-009
2.181250	10738516.164070291	0
2.187500	10673673.603347583	1.963400381411351e-009
2.193750	10596925.251952587	1.963400381411351e-009
2.200000	10508760.763868703	1.963400381411351e-009
2.206250	10450656.67841457	1.963400381411351e-009
2.212500	10379161.431137377	1.963400381411351e-009
2.218750	10295953.620738463	1.963400381411351e-009
2.225000	10201001.428427277	1.963400381411351e-009
2.231250	10096719.014836257	1.963400381411351e-009
2.237500	9982161.0160444248	0
2.243750	9859000.8149442431	1.963400381411351e-009
2.250000	9726612.2583753131	1.963400381411351e-009
2.256250	9586271.6146424655	1.963400381411351e-009
2.262500	9437904.9874566458	1.963400381411351e-009
2.268750	9292529.1749052685	0
2.275000	9167292.5489676483	1.963400381411351e-009
2.281250	9031688.1132352613	1.963400381411351e-009
2.287500	8887700.0271257404	1.963400381411351e-009
2.293750	8738984.8750720471	0
2.300000	8586159.8613410629	1.963400381411351e-009
2.306250	8428701.2915768214	1.963400381411351e-009
2.312500	8268271.5911557525	0
2.318750	8103874.6938983444	0
2.325000	7936738.1050152052	9.8170019070567548e-010
2.331250	7764747.911622351	9.8170019070567548e-010
2.337500	7619393.0624805111	0
2.343750	7484065.0628706859	0
2.350000	7310205.5459090229	9.8170019070567548e-010
2.356250	7155310.8149464857	0
2.362500	7004227.4461620674	0
2.368750	6840276.4002309162	1.963400381411351e-009
2.375000	6680514.4338845089	0
2.381250	6520595.1600412214	0
2.387500	6356641.3543948475	9.8170019070567548e-010
2.393750	6192021.3125404278	9.8170019070567548e-010
2.400000	6025200.0752916913	9.8170019070567548e-010
2.406250	5881281.4371422986	0
2.412500	5734073.1031692242	9.8170019070567548e-010
2.418750	5585312.6502453843	0
2.425000	5435381.5736647164	0
2.431250	5284599.3238540431	0
2.437500	5133719.2279125731	9.8170019070567548e-010
2.443750	4983213.9042780632	0
2.450000	4832421.0494974535	9.8170019070567548e-010
2.456250	4681812.1726866532	9.8170019070567548e-010
2.462500	4531434.8695830544	0
2.468750	4387401.4936433714	9.8170019070567548e-010
2.475000	4254685.0401899833	9.8170019070567548e-010
2.481250	4122249.2139364379	0
2.487500	3990971.717527804	0
2.493750	3861569.0043442631	9.8170019070567548e-010
2.500000	3734294.157782773	0
2.506250	3610375.0487431837	4.9085009535283774e-010
2.512500	3489856.7899533352	9.8170019070567548e-010
