#List of files for average calculation
#C:\D+_tests\Symmetry\GPU\Without_Hydration\Manual_Symmetry_Implicit_No_Charges_Without_Hydration_Hybrid_VEGAS_Amp\Manual_Symmetry_Implicit_No_Charges_Without_Hydration_Hybrid_VEGAS_Amp_1
#C:\D+_tests\Symmetry\GPU\Without_Hydration\Manual_Symmetry_Implicit_No_Charges_Without_Hydration_Hybrid_VEGAS_Amp\Manual_Symmetry_Implicit_No_Charges_Without_Hydration_Hybrid_VEGAS_Amp_2
#C:\D+_tests\Symmetry\GPU\Without_Hydration\Manual_Symmetry_Implicit_No_Charges_Without_Hydration_Hybrid_VEGAS_Amp\Manual_Symmetry_Implicit_No_Charges_Without_Hydration_Hybrid_VEGAS_Amp_3
#C:\D+_tests\Symmetry\GPU\Without_Hydration\Manual_Symmetry_Implicit_No_Charges_Without_Hydration_Hybrid_VEGAS_Amp\Manual_Symmetry_Implicit_No_Charges_Without_Hydration_Hybrid_VEGAS_Amp_4
#C:\D+_tests\Symmetry\GPU\Without_Hydration\Manual_Symmetry_Implicit_No_Charges_Without_Hydration_Hybrid_VEGAS_Amp\Manual_Symmetry_Implicit_No_Charges_Without_Hydration_Hybrid_VEGAS_Amp_5
#C:\D+_tests\Symmetry\GPU\Without_Hydration\Manual_Symmetry_Implicit_No_Charges_Without_Hydration_Hybrid_VEGAS_Amp\Manual_Symmetry_Implicit_No_Charges_Without_Hydration_Hybrid_VEGAS_Amp_6
#C:\D+_tests\Symmetry\GPU\Without_Hydration\Manual_Symmetry_Implicit_No_Charges_Without_Hydration_Hybrid_VEGAS_Amp\Manual_Symmetry_Implicit_No_Charges_Without_Hydration_Hybrid_VEGAS_Amp_7
#C:\D+_tests\Symmetry\GPU\Without_Hydration\Manual_Symmetry_Implicit_No_Charges_Without_Hydration_Hybrid_VEGAS_Amp\Manual_Symmetry_Implicit_No_Charges_Without_Hydration_Hybrid_VEGAS_Amp_8
#C:\D+_tests\Symmetry\GPU\Without_Hydration\Manual_Symmetry_Implicit_No_Charges_Without_Hydration_Hybrid_VEGAS_Amp\Manual_Symmetry_Implicit_No_Charges_Without_Hydration_Hybrid_VEGAS_Amp_9
#C:\D+_tests\Symmetry\GPU\Without_Hydration\Manual_Symmetry_Implicit_No_Charges_Without_Hydration_Hybrid_VEGAS_Amp\Manual_Symmetry_Implicit_No_Charges_Without_Hydration_Hybrid_VEGAS_Amp_10
#Average Chi square (Sigma units): 1.5681367363843
#Sigma Chi square: 0.21147986425704
#Calculation was done on GPU
q [nm^-1]	Intensity [A.U]	Sigma [A.U]
0.000000	43448519675.18895	1.1373229866026762e-005
0.006250	43490756730.606392	86907.103250423024
0.012500	43446467296.367279	220795.95291842031
0.018750	43319739849.88887	275342.79495792603
0.025000	43112979591.74884	697781.40285470523
0.031250	42828148409.025475	807779.24534019746
0.037500	42465193139.045532	999619.3498728422
0.043750	42023627711.818184	1845978.7055470461
0.050000	41503328235.413651	2697611.29098291
0.056250	40902212175.221886	1937941.5110730838
0.062500	40220923423.209869	1179230.7918518314
0.068750	39511699191.364067	839969.83885762608
0.075000	38825588395.446068	2522146.2498679515
0.081250	38064211210.13102	1470609.447717441
0.087500	37230627763.091606	6177628.8989160331
0.093750	36341703775.806923	1749465.3675890048
0.100000	35396634277.842781	5684655.6186918411
0.106250	34408380047.021111	5060495.886201676
0.112500	33381434033.575775	5428528.3853738392
0.118750	32320086513.159485	6963027.6455587419
0.125000	31235440703.497028	3813676.4531271853
0.131250	30126936770.397388	3560555.5174071947
0.137500	29070539677.000652	1736274.2880701786
0.143750	28020813374.855335	6580404.1836126912
0.150000	26961882325.9296	6402721.3695511939
0.156250	25896041823.547958	4314455.5374532258
0.162500	24829237276.066479	3878565.0366990604
0.168750	23771249393.819973	3582287.3326702989
0.175000	22721792122.482746	6938867.0759383859
0.181250	21691090891.872063	7378809.0319445683
0.187500	20681354911.465015	3135845.6167464629
0.193750	19692963662.795223	4189303.0218873238
0.200000	18729995628.748711	3269032.4118196894
0.206250	17847953733.279465	3212427.0421406538
0.212500	16986529249.930578	3151749.7125582634
0.218750	16146328682.707798	5481725.0332144937
0.225000	15333977146.798023	5330314.1602278063
0.231250	14556040639.829264	1794387.6306925635
0.237500	13803954301.978399	3251325.1620485811
0.243750	13083553967.107403	2755343.3749584793
0.250000	12392826267.032528	3121961.733368997
0.256250	11732931680.475477	2983849.9505822174
0.262500	11104280810.400904	2507935.7302608853
0.268750	10512231326.822104	3549979.4594386914
0.275000	9964221978.4265251	4448613.5674519464
0.281250	9444506762.846096	3480149.6873378977
0.287500	8948669675.3222084	3063478.2008296191
0.293750	8476729895.702199	3189215.3754235869
0.300000	8029414109.8976164	2895822.5078433747
0.306250	7605364520.96033	3097796.5169392256
0.312500	7203196846.7107677	2277161.4740976682
0.318750	6821513646.4261589	2678678.0081990235
0.325000	6460599253.7697725	2614234.6904573618
0.331250	6117802457.4608345	2444281.7835614164
0.337500	5804074518.9574261	3066347.74118827
0.343750	5506732345.3577414	3147522.783484627
0.350000	5223187972.4270649	3185421.0956369624
0.356250	4952538815.9341297	3231578.8721446125
0.362500	4694751526.105114	3106155.676816545
0.368750	4448396951.2187071	3355810.4264247259
0.375000	4212988744.3404746	3115735.5091933408
0.381250	3987711249.8301187	3240785.6690877317
0.387500	3772133274.520421	3217971.6932877065
0.393750	3565431264.7170792	3099922.4965075525
0.400000	3367288038.3098273	3017048.337635844
0.406250	3184041522.8626509	2126787.8797617187
0.412500	3007627993.6839547	2053503.3154453235
0.418750	2837484275.0181875	1850846.9428699212
0.425000	2673409265.7456441	1964645.7192480962
0.431250	2515535907.4478827	1764803.5740686823
0.437500	2363623709.2491479	1839241.4550530396
0.443750	2217983910.9489293	1441842.7601594625
0.450000	2078284088.0737247	1407390.5023011374
0.456250	1944244068.8829913	1145161.3515722475
0.462500	1816632684.7185376	1254350.4526431176
0.468750	1696856981.2494152	1039314.9531549952
0.475000	1583774294.9170446	1157029.167539089
0.481250	1476159305.3154159	973464.40355712094
0.487500	1373625640.1620011	814222.6359350346
0.493750	1276276063.5427043	728408.80163206486
0.500000	1184329403.5641799	672994.82642118714
0.506250	1097870280.9054818	803192.85746031115
0.512500	1016807728.1581829	613700.42241459421
0.518750	940837539.00396478	661120.68263224501
0.525000	870392430.20687604	544351.79003906902
0.531250	804971539.04024553	499473.67543226329
0.537500	744744493.46886039	745773.89140704519
0.543750	690090799.63368678	744688.32489925844
0.550000	639796409.44436491	712954.0607191195
0.556250	593772739.44909394	684988.02345309663
0.562500	551543596.06917667	749961.56120236532
0.568750	513176402.20855629	680457.10411961679
0.575000	478314123.64200926	716770.0337782877
0.581250	446787534.19820392	710325.71767174685
0.587500	418334163.92676866	699627.56681313203
0.593750	392760883.17775321	748156.19316766912
0.600000	369610669.64314711	706271.52571822284
0.606250	349747448.0391674	355619.40681418648
0.612500	331761024.12365401	339187.90300892759
0.618750	315466899.42008394	352275.1830808731
0.625000	300649055.67266601	358198.10614115727
0.631250	287134974.01438344	337026.18388443487
0.637500	274744466.83646548	358766.65971971722
0.643750	263328062.97635239	356579.95077203598
0.650000	252714673.36497587	362562.84997626138
0.656250	242840003.72760248	342519.14810318995
0.662500	233568770.43901667	359303.14083966333
0.668750	225078192.20552593	280977.89640113141
0.675000	217388216.91042352	247005.1057113304
0.681250	209802314.71726963	218576.06569244494
0.687500	202261194.21392766	189516.95145196977
0.693750	194802384.56386074	169239.06258265043
0.700000	187313885.47362161	171124.86683560626
0.706250	179997776.94217128	137268.20107336366
0.712500	172703438.12755078	153393.28730939634
0.718750	165554903.75334555	133025.39078869068
0.725000	158500860.30814332	199582.48347597042
0.731250	151805988.95947438	162911.11496500377
0.737500	145744904.64975464	217637.99542958935
0.743750	139731638.82977301	236665.14291826278
0.750000	133766733.81433383	238515.48316931666
0.756250	127871614.32744679	236192.00706598838
0.762500	122166195.55459872	258141.1418273623
0.768750	116695870.73282826	250934.91532250174
0.775000	111480364.30238238	234419.47311669576
0.781250	106564090.88434385	235001.79991094192
0.787500	101988263.68810847	237537.60164941693
0.793750	97760552.348958507	222363.2113303465
0.800000	93890391.007810265	213655.66083550447
0.806250	90616300.477561861	116757.83299700131
0.812500	87564607.908506289	109274.65762132597
0.818750	84762016.190519676	110267.50962990455
0.825000	82216685.0584822	116454.52438767282
0.831250	79918581.389414564	112805.65807486883
0.837500	77880181.620485216	112157.34699491758
0.843750	76048880.871297225	113617.23475839039
0.850000	74427643.712305069	115105.06676974772
0.856250	72957844.326057047	115298.01650276341
0.862500	71599912.233684957	114243.32916142755
0.868750	70476687.379245728	162046.83144358604
0.875000	69471263.501920342	163441.18010637595
0.881250	68485801.831920043	160101.69294019256
0.887500	67514588.915002376	156089.29859576968
0.893750	66548167.271263793	154737.52466021923
0.900000	65549630.496796295	150127.50898418736
0.906250	64510785.479327723	144962.78300556573
0.912500	63404066.746139571	143910.97088530587
0.918750	62207403.07919465	137255.04032549204
0.925000	60906807.471480981	130899.71003251577
0.931250	59486915.588232316	130000.24081028842
0.937500	58055462.384596571	86425.416614632806
0.943750	56625688.382423498	83719.314882905703
0.950000	55113858.624642253	80700.729040352307
0.956250	53535838.225330003	77618.458176136235
0.962500	51905325.113787949	74500.499012597022
0.968750	50235447.583531037	71526.688827123682
0.975000	48539972.68586091	68681.413039765976
0.981250	46831872.885371	64200.02095759716
0.987500	45129986.294538997	63645.311528350263
0.993750	43442162.478734873	63110.431822900689
1.000000	41803807.251511209	59523.598220042833
1.006250	40313987.507896267	62719.993770895562
1.012500	38896532.05946859	65950.89991459978
1.018750	37571472.469671354	61259.638039532489
1.025000	36346141.328300402	55063.292020438043
1.031250	35245905.60068436	59536.640810563535
1.037500	34265842.488490298	60851.661037172082
1.043750	33420602.079612486	57475.416793457625
1.050000	32708031.274850182	58873.625358014324
1.056250	32135928.580552649	57179.276349844513
1.062500	31698436.300295521	57115.741008297606
1.068750	31389054.257611502	67567.674804308655
1.075000	31245580.657878868	64437.00375645436
1.081250	31214079.227424763	61459.1726551924
1.087500	31285360.830496807	58797.132891678324
1.093750	31449703.290960856	58881.301174663306
1.100000	31689465.163846117	54966.213325914163
1.106250	31994901.879858829	53966.846513072298
1.112500	32348785.623053443	53590.317771993185
1.118750	32734346.622040711	53760.287694147177
1.125000	33133825.209315646	54340.904359801454
1.131250	33528707.018401377	55157.094326552557
1.137500	33929457.512040228	55168.449178783878
1.143750	34323985.082692005	52279.049918067882
1.150000	34671521.217472114	49761.558035625261
1.156250	34961362.957630046	47748.208618676668
1.162500	35184240.911370315	46351.461718351093
1.168750	35332214.493104219	45645.127450333268
1.175000	35398589.583575927	45648.040478716459
1.181250	35377883.303447649	46319.153150256083
1.187500	35265856.827444009	47565.730217097764
1.193750	35059530.200385615	49011.365831620926
1.200000	34757878.546655655	51270.941525965194
1.206250	34487416.75840728	57544.288952982621
1.212500	34063487.374483377	57370.224814613815
1.218750	33550708.238905817	57436.940240610311
1.225000	32956728.935207676	57585.498853270612
1.231250	32297223.787215322	58188.55568487056
1.237500	31576547.142061971	59561.376946897457
1.243750	30808985.489067018	59370.972092957374
1.250000	30002230.706879549	61798.509044688624
1.256250	29171730.836484917	60387.390354218245
1.262500	28324159.661816657	60627.503333566543
1.268750	27469698.367838006	65228.187169077682
1.275000	26652304.972926885	62995.425285557852
1.281250	25839660.720809586	60889.622378654916
1.287500	25042162.498750187	58924.595814250613
1.293750	24272447.022011131	57291.032340545527
1.300000	23535818.376367416	55921.155549797615
1.306250	22839704.769096062	54733.963443113593
1.312500	22189784.032856587	54349.802577239905
1.318750	21589411.461742401	54254.132873209659
1.325000	21041465.227444503	54959.027892207385
1.331250	20546078.206261434	55576.436701110753
1.337500	20117248.057132728	42697.823510423776
1.343750	19740778.540593825	41461.172789034776
1.350000	19408871.957150787	40712.979538143605
1.356250	19118238.787206512	40419.546560893628
1.362500	18864883.846671142	40512.400046215895
1.368750	18644315.895330667	40900.812375854046
1.375000	18451718.757977683	41485.924458121255
1.381250	18281969.293520954	42172.416779523788
1.387500	18129593.090697058	42876.164422078968
1.393750	17988626.538491711	43527.302175980069
1.400000	17852410.913855199	44070.343716293915
1.406250	17752647.500718936	36644.596954949564
1.412500	17637996.229026068	36071.780610048518
1.418750	17504023.589404278	35581.042467656669
1.425000	17348413.695905112	36261.197488946513
1.431250	17164297.054707147	35015.09137147569
1.437500	16954267.224819422	34559.344306762912
1.443750	16716842.812799504	34349.854778152854
1.450000	16452155.970936185	34069.110032980228
1.456250	16159257.82313568	33928.090823027735
1.462500	15838970.278871426	33865.52216258501
1.468750	15540554.020647075	29922.062770373519
1.475000	15221313.39495418	29188.200921503369
1.481250	14858597.268459018	28529.34636219584
1.487500	14457102.280436208	27938.986170217948
1.493750	14022759.244756714	27411.387909945253
1.500000	13562283.988126818	26942.153097401177
1.506250	13082638.6317355	26528.416015286908
1.512500	12590553.085026491	26168.909587293234
1.518750	12092109.345830102	25863.654962776334
1.525000	11592363.354600616	25613.497126638882
1.531250	11095176.722097723	25419.240647015886
1.537500	10645903.898117587	20168.540689426314
1.543750	10201127.647178719	19544.847792868153
1.550000	9751680.7609003894	18928.92652724911
1.556250	9305139.248035768	18335.294882489281
1.562500	8868749.0943944193	17779.092946174344
1.568750	8448980.3430388235	17275.617502332916
1.575000	8051210.1761221886	16839.621799192926
1.581250	7679502.3139375774	16484.468053536919
1.587500	7335871.988570964	15895.410014988518
1.593750	7023287.0535184192	16055.883044676835
1.600000	6739808.1589198336	15991.346993285373
1.606250	6520847.6800510883	14661.595098060288
1.612500	6316741.3356288318	13655.214522589598
1.618750	6133266.0832979558	12784.951032579342
1.625000	5972247.8776402902	11524.677709742225
1.631250	5835781.195545936	11483.113174638032
1.637500	5723375.9694281314	11050.731426107322
1.643750	5634698.6947924141	10754.448213724218
1.650000	5568127.2418607399	10785.70315423289
1.656250	5521530.9490484986	10524.034789499303
1.662500	5492419.1867478583	10559.328850592068
1.668750	5482607.4903609809	14898.193820173703
1.675000	5500565.3222554727	14534.516452483032
1.681250	5526325.9111735765	14235.064968089508
1.687500	5559430.3598494185	14005.070497041203
1.693750	5599084.1796202436	13848.511193292919
1.700000	5644383.6345856059	13663.060909884503
1.706250	5694121.595624445	13755.404542417815
1.712500	5746738.6564776702	13816.144763719794
1.718750	5800831.950123718	13942.746448167958
1.725000	5854859.0866819751	14148.577435539417
1.731250	5907759.0794213731	14370.748999532931
1.737500	5958474.7438792484	19420.738824842389
1.743750	6027760.6155346166	19688.916351169453
1.750000	6095023.5032091523	19936.56592200157
1.756250	6160510.5104187625	20166.404414562239
1.762500	6224397.0992807224	20377.472424818327
1.768750	6286794.4968193527	20566.27345734695
1.775000	6347767.2208416546	20727.640908801146
1.781250	6407336.7836682275	20855.483480878382
1.787500	6465489.0566456728	20943.364343512247
1.793750	6522167.0987052405	20985.021067296406
1.800000	6577253.8765648128	20974.729895164768
1.806250	6655806.8066972699	21237.450872607413
1.812500	6729894.3735631751	20628.340802752169
1.818750	6804770.2244752441	20064.498102272144
1.825000	6881097.3051513461	19333.507335857368
1.831250	6958642.1076335879	19163.206856379686
1.837500	7038018.0593014043	18819.170465905259
1.843750	7119358.8708222136	18708.225832641343
1.850000	7202111.0552103128	18668.511646405164
1.856250	7286429.0351411598	18351.234524674317
1.862500	7370442.8032996878	19103.317343665109
1.868750	7473481.0535320221	14648.956540284449
1.875000	7583596.9324288936	14139.511911710428
1.881250	7694364.9143439103	13656.119646641166
1.887500	7805642.6528413277	13213.343392501039
1.893750	7917171.4403110985	12821.894514167143
1.900000	8028589.4972757157	12502.082597885899
1.906250	8139311.3219224615	12258.650463398832
1.912500	8248566.7805589307	11997.325476462311
1.918750	8355570.4482103037	11807.486980352976
1.925000	8459085.0958288759	11709.360228274332
1.931250	8557909.1479228623	11619.321557974612
1.937500	8662781.0448840912	31600.286669317331
1.943750	8782783.8184130453	31416.906165895121
1.950000	8898118.0542651452	31146.426012853139
1.956250	9008973.2411436476	30801.583097759529
1.962500	9115454.2668079361	30397.90601664102
1.968750	9217529.4233374093	29952.683049535342
1.975000	9314976.5382841341	29430.827583683884
1.981250	9407516.7893932648	29009.432104325926
1.987500	9494489.9925985653	28545.611426851276
1.993750	9575177.1172873341	28106.746741993724
2.000000	9648647.8127293494	27704.029836023765
2.006250	9762117.0463587288	28023.300387920794
2.012500	9859523.0348014869	28616.159485148975
2.018750	9950935.8459782321	29150.447962682028
2.025000	10037237.368329519	29305.996864426521
2.031250	10117570.584759703	30179.149103525469
2.037500	10193029.912243575	30675.469782036169
2.043750	10262989.740353143	31167.492679713134
2.050000	10326925.723657917	31661.329378079568
2.056250	10383994.465546384	32150.641946279593
2.062500	10433195.393977311	32642.800746217221
2.068750	10448559.115051974	38403.891168274014
2.075000	10522363.287948767	37908.136315094409
2.081250	10588098.956252672	37390.55588426724
2.087500	10646140.074634012	36768.342286650477
2.093750	10696844.38603365	36344.407595831486
2.100000	10740010.673790406	35862.037743690162
2.106250	10775342.8555991	35408.39661840233
2.112500	10802278.489822593	35002.610359439881
2.118750	10820003.630225299	34653.037414042854
2.125000	10827477.05783358	34364.980852529661
2.131250	10823462.596314942	34140.285054612439
2.137500	10841838.845167143	43675.387629888071
2.143750	10858194.961325839	43784.119726774312
2.150000	10862825.224309957	43829.441301602827
2.156250	10856019.367676537	43694.206851031173
2.162500	10838387.739167791	43762.386187521115
2.168750	10809588.552417848	43663.251042517411
2.175000	10769677.139022967	43528.073378585097
2.181250	10718335.947430721	43361.336621285001
2.187500	10655101.343941251	43167.200880303979
2.193750	10579349.264337786	42949.526639430813
2.200000	10490323.792081505	42712.090006327315
2.206250	10452655.459707368	36261.779339685949
2.212500	10382262.417671088	36154.070027138769
2.218750	10299774.397668276	35946.536603243716
2.225000	10205535.403901821	35460.289785081179
2.231250	10102631.501680713	35325.61813552578
2.237500	9989670.4960875083	34888.866312633567
2.243750	9867855.6734102108	34379.900965470231
2.250000	9737132.1149579734	33880.72763781347
2.256250	9598569.2443903554	33199.324519705151
2.262500	9451185.0043176953	32486.005461514898
2.268750	9301109.2026583049	27028.686667989903
2.275000	9175176.54521285	26530.254392548737
2.281250	9040855.2966803052	26041.131600896791
2.287500	8899586.6645792462	25555.230515031108
2.293750	8752565.1210741084	25067.037595238169
2.300000	8600733.6654508449	24572.760593775554
2.306250	8444733.9179191142	24070.975939395626
2.312500	8284955.4903126229	23563.273229959505
2.318750	8121511.1890237238	23054.080684025423
2.325000	7954283.6910641165	22550.140994936213
2.331250	7782986.939453641	22059.632622843092
2.337500	7622485.9179562153	14419.247739721235
2.343750	7474264.5260984432	14850.346130864458
2.350000	7322148.2257787138	15311.467109734222
2.356250	7167127.70322417	15792.702893030582
2.362500	7009926.6656353865	16267.670054145876
2.368750	6851028.6415210273	16735.936928541923
2.375000	6690677.5579269696	17180.682705214011
2.381250	6528895.8523346912	17589.980361355054
